   20.000     5613
   20.015     5736
   20.030     5757
   20.045     5653
   20.060     5600
   20.075     5559
   20.090     5557
   20.105     5689
   20.120     5795
   20.135     5669
   20.150     5678
   20.165     5584
   20.180     5608
   20.195     5558
   20.210     5647
   20.225     5733
   20.240     5744
   20.255     5640
   20.270     5534
   20.285     5637
   20.300     5582
   20.315     5494
   20.330     5552
   20.345     5664
   20.360     5544
   20.375     5450
   20.390     5485
   20.405     5586
   20.420     5525
   20.435     5562
   20.450     5476
   20.465     5477
   20.480     5491
   20.495     5553
   20.510     5496
   20.525     5492
   20.540     5433
   20.555     5405
   20.570     5481
   20.585     5494
   20.600     5577
   20.615     5448
   20.630     5441
   20.645     5534
   20.660     5438
   20.675     5396
   20.690     5404
   20.705     5446
   20.720     5328
   20.735     5294
   20.750     5410
   20.765     5383
   20.780     5430
   20.795     5397
   20.810     5347
   20.825     5369
   20.840     5400
   20.855     5434
   20.870     5424
   20.885     5403
   20.900     5346
   20.915     5296
   20.930     5465
   20.945     5440
   20.960     5501
   20.975     5325
   20.990     5416
   21.005     5404
   21.020     5484
   21.035     5316
   21.050     5298
   21.065     5308
   21.080     5381
   21.095     5435
   21.110     5335
   21.125     5411
   21.140     5384
   21.155     5328
   21.170     5310
   21.185     5280
   21.200     5236
   21.215     5194
   21.230     5302
   21.245     5463
   21.260     5406
   21.275     5470
   21.290     5329
   21.305     5371
   21.320     5372
   21.335     5496
   21.350     5360
   21.365     5376
   21.380     5353
   21.395     5376
   21.410     5239
   21.425     5339
   21.440     5371
   21.455     5217
   21.470     5266
   21.485     5313
   21.500     5365
   21.515     5294
   21.530     5309
   21.545     5341
   21.560     5314
   21.575     5266
   21.590     5280
   21.605     5256
   21.620     5332
   21.635     5187
   21.650     5277
   21.665     5181
   21.680     5162
   21.695     5207
   21.710     5132
   21.725     5298
   21.740     5289
   21.755     5253
   21.770     5154
   21.785     5087
   21.800     5084
   21.815     5099
   21.830     5196
   21.845     5164
   21.860     5253
   21.875     5145
   21.890     5114
   21.905     5186
   21.920     5114
   21.935     5165
   21.950     5017
   21.965     5226
   21.980     5087
   21.995     5032
   22.010     5079
   22.025     5126
   22.040     5232
   22.055     5109
   22.070     5070
   22.085     4997
   22.100     5073
   22.115     5047
   22.130     4967
   22.145     5009
   22.160     5005
   22.175     5017
   22.190     4970
   22.205     4978
   22.220     5059
   22.235     4961
   22.250     5010
   22.265     4975
   22.280     4935
   22.295     4913
   22.310     4961
   22.325     4922
   22.340     4939
   22.355     4942
   22.370     4956
   22.385     4983
   22.400     5022
   22.415     5005
   22.430     4894
   22.445     4894
   22.460     4917
   22.475     4986
   22.490     5015
   22.505     4817
   22.520     4833
   22.535     4951
   22.550     4867
   22.565     4953
   22.580     4874
   22.595     4884
   22.610     4801
   22.625     4840
   22.640     4904
   22.655     4772
   22.670     4838
   22.685     4829
   22.700     4888
   22.715     4879
   22.730     4864
   22.745     4782
   22.760     4805
   22.775     4779
   22.790     4836
   22.805     4872
   22.820     4818
   22.835     4861
   22.850     4916
   22.865     4867
   22.880     4818
   22.895     4712
   22.910     4732
   22.925     4749
   22.940     4722
   22.955     4813
   22.970     4745
   22.985     4837
   23.000     4684
   23.015     4852
   23.030     4848
   23.045     4819
   23.060     4857
   23.075     4844
   23.090     4788
   23.105     4770
   23.120     4791
   23.135     4826
   23.150     4867
   23.165     4759
   23.180     4820
   23.195     4817
   23.210     4764
   23.225     4806
   23.240     4807
   23.255     4753
   23.270     4769
   23.285     4757
   23.300     4874
   23.315     4889
   23.330     4823
   23.345     4827
   23.360     4856
   23.375     4888
   23.390     4937
   23.405     4931
   23.420     5035
   23.435     4946
   23.450     5040
   23.465     5014
   23.480     5066
   23.495     5088
   23.510     5295
   23.525     5344
   23.540     5256
   23.555     5287
   23.570     5409
   23.585     5487
   23.600     5556
   23.615     5616
   23.630     5673
   23.645     5721
   23.660     5716
   23.675     5849
   23.690     5803
   23.705     5875
   23.720     5778
   23.735     5727
   23.750     5825
   23.765     5721
   23.780     5605
   23.795     5448
   23.810     5432
   23.825     5529
   23.840     5336
   23.855     5233
   23.870     5187
   23.885     5161
   23.900     5088
   23.915     5083
   23.930     4953
   23.945     4962
   23.960     4870
   23.975     4853
   23.990     4803
   24.005     4826
   24.020     4795
   24.035     4729
   24.050     4744
   24.065     4723
   24.080     4610
   24.095     4547
   24.110     4607
   24.125     4666
   24.140     4603
   24.155     4522
   24.170     4600
   24.185     4573
   24.200     4450
   24.215     4446
   24.230     4451
   24.245     4423
   24.260     4482
   24.275     4508
   24.290     4441
   24.305     4334
   24.320     4387
   24.335     4389
   24.350     4443
   24.365     4374
   24.380     4395
   24.395     4471
   24.410     4371
   24.425     4417
   24.440     4328
   24.455     4351
   24.470     4363
   24.485     4411
   24.500     4497
   24.515     4340
   24.530     4310
   24.545     4428
   24.560     4382
   24.575     4368
   24.590     4381
   24.605     4302
   24.620     4356
   24.635     4274
   24.650     4230
   24.665     4279
   24.680     4215
   24.695     4289
   24.710     4332
   24.725     4287
   24.740     4298
   24.755     4237
   24.770     4351
   24.785     4355
   24.800     4291
   24.815     4361
   24.830     4330
   24.845     4165
   24.860     4251
   24.875     4241
   24.890     4261
   24.905     4291
   24.920     4339
   24.935     4302
   24.950     4291
   24.965     4358
   24.980     4277
   24.995     4179
   25.010     4253
   25.025     4228
   25.040     4258
   25.055     4176
   25.070     4184
   25.085     4163
   25.100     4175
   25.115     4291
   25.130     4332
   25.145     4340
   25.160     4260
   25.175     4193
   25.190     4212
   25.205     4203
   25.220     4329
   25.235     4223
   25.250     4206
   25.265     4118
   25.280     4203
   25.295     4188
   25.310     4107
   25.325     4142
   25.340     4226
   25.355     4225
   25.370     4193
   25.385     4203
   25.400     4153
   25.415     4200
   25.430     4181
   25.445     4153
   25.460     4082
   25.475     4109
   25.490     4120
   25.505     4163
   25.520     4160
   25.535     4206
   25.550     4123
   25.565     4061
   25.580     4195
   25.595     4163
   25.610     4089
   25.625     4133
   25.640     4222
   25.655     4113
   25.670     4059
   25.685     4018
   25.700     4104
   25.715     4170
   25.730     4079
   25.745     4116
   25.760     4111
   25.775     4033
   25.790     4159
   25.805     4116
   25.820     4021
   25.835     4022
   25.850     4064
   25.865     4099
   25.880     3965
   25.895     3997
   25.910     3959
   25.925     3957
   25.940     3973
   25.955     4039
   25.970     4005
   25.985     4085
   26.000     4104
   26.015     3967
   26.030     4021
   26.045     4053
   26.060     4089
   26.075     4046
   26.090     4072
   26.105     4015
   26.120     4022
   26.135     4097
   26.150     4075
   26.165     4052
   26.180     3997
   26.195     3961
   26.210     3911
   26.225     3987
   26.240     4099
   26.255     4059
   26.270     4005
   26.285     3933
   26.300     3921
   26.315     3855
   26.330     3828
   26.345     3830
   26.360     3895
   26.375     3929
   26.390     3954
   26.405     3864
   26.420     3916
   26.435     3920
   26.450     3820
   26.465     3807
   26.480     3862
   26.495     3943
   26.510     3922
   26.525     3895
   26.540     3884
   26.555     3938
   26.570     3849
   26.585     3887
   26.600     3759
   26.615     3842
   26.630     3839
   26.645     3876
   26.660     3885
   26.675     3915
   26.690     3810
   26.705     3907
   26.720     3818
   26.735     3819
   26.750     3731
   26.765     3790
   26.780     3863
   26.795     3821
   26.810     3762
   26.825     3865
   26.840     3789
   26.855     3795
   26.870     3860
   26.885     3752
   26.900     3825
   26.915     3841
   26.930     3818
   26.945     3658
   26.960     3751
   26.975     3769
   26.990     3766
   27.005     3799
   27.020     3785
   27.035     3813
   27.050     3822
   27.065     3740
   27.080     3751
   27.095     3681
   27.110     3775
   27.125     3815
   27.140     3730
   27.155     3722
   27.170     3691
   27.185     3672
   27.200     3760
   27.215     3720
   27.230     3637
   27.245     3690
   27.260     3688
   27.275     3745
   27.290     3670
   27.305     3656
   27.320     3630
   27.335     3545
   27.350     3497
   27.365     3566
   27.380     3667
   27.395     3578
   27.410     3666
   27.425     3644
   27.440     3658
   27.455     3653
   27.470     3645
   27.485     3658
   27.500     3628
   27.515     3619
   27.530     3604
   27.545     3586
   27.560     3547
   27.575     3616
   27.590     3590
   27.605     3502
   27.620     3609
   27.635     3632
   27.650     3596
   27.665     3554
   27.680     3546
   27.695     3503
   27.710     3630
   27.725     3547
   27.740     3552
   27.755     3550
   27.770     3544
   27.785     3649
   27.800     3581
   27.815     3581
   27.830     3553
   27.845     3547
   27.860     3587
   27.875     3476
   27.890     3564
   27.905     3605
   27.920     3586
   27.935     3462
   27.950     3579
   27.965     3514
   27.980     3549
   27.995     3492
   28.010     3478
   28.025     3562
   28.040     3454
   28.055     3564
   28.070     3538
   28.085     3453
   28.100     3460
   28.115     3504
   28.130     3535
   28.145     3446
   28.160     3385
   28.175     3484
   28.190     3503
   28.205     3447
   28.220     3447
   28.235     3412
   28.250     3560
   28.265     3623
   28.280     3434
   28.295     3559
   28.310     3579
   28.325     3557
   28.340     3619
   28.355     3568
   28.370     3547
   28.385     3630
   28.400     3641
   28.415     3553
   28.430     3631
   28.445     3741
   28.460     3728
   28.475     3725
   28.490     3743
   28.505     3804
   28.520     3905
   28.535     3923
   28.550     3976
   28.565     4061
   28.580     4081
   28.595     4090
   28.610     4282
   28.625     4346
   28.640     4370
   28.655     4406
   28.670     4504
   28.685     4575
   28.700     4607
   28.715     4607
   28.730     4548
   28.745     4627
   28.760     4600
   28.775     4587
   28.790     4511
   28.805     4517
   28.820     4575
   28.835     4465
   28.850     4399
   28.865     4353
   28.880     4310
   28.895     4277
   28.910     4124
   28.925     4102
   28.940     3986
   28.955     3949
   28.970     3922
   28.985     3873
   29.000     3868
   29.015     3817
   29.030     3751
   29.045     3678
   29.060     3633
   29.075     3572
   29.090     3574
   29.105     3638
   29.120     3591
   29.135     3501
   29.150     3403
   29.165     3516
   29.180     3527
   29.195     3579
   29.210     3511
   29.225     3466
   29.240     3408
   29.255     3428
   29.270     3464
   29.285     3334
   29.300     3356
   29.315     3410
   29.330     3376
   29.345     3311
   29.360     3257
   29.375     3277
   29.390     3263
   29.405     3243
   29.420     3225
   29.435     3285
   29.450     3237
   29.465     3117
   29.480     3169
   29.495     3133
   29.510     3237
   29.525     3163
   29.540     3153
   29.555     3151
   29.570     3114
   29.585     3139
   29.600     3184
   29.615     3125
   29.630     3097
   29.645     3045
   29.660     3077
   29.675     3141
   29.690     3114
   29.705     3023
   29.720     3032
   29.735     2975
   29.750     3012
   29.765     3037
   29.780     3055
   29.795     2952
   29.810     2964
   29.825     3055
   29.840     3044
   29.855     2933
   29.870     2987
   29.885     3058
   29.900     3036
   29.915     2977
   29.930     2994
   29.945     3015
   29.960     2950
   29.975     2976
   29.990     3061
   30.005     3067
   30.020     2994
   30.035     2951
   30.050     2941
   30.065     3005
   30.080     3041
   30.095     3028
   30.110     3040
   30.125     2959
   30.140     2914
   30.155     2952
   30.170     2921
   30.185     2912
   30.200     2941
   30.215     2967
   30.230     2851
   30.245     2941
   30.260     2929
   30.275     2916
   30.290     2925
   30.305     2891
   30.320     2887
   30.335     2946
   30.350     2918
   30.365     2921
   30.380     2892
   30.395     2919
   30.410     2928
   30.425     2943
   30.440     2874
   30.455     2910
   30.470     2959
   30.485     2911
   30.500     2837
   30.515     2827
   30.530     2807
   30.545     2855
   30.560     2880
   30.575     2885
   30.590     2899
   30.605     2876
   30.620     2833
   30.635     2889
   30.650     2874
   30.665     2866
   30.680     2833
   30.695     2831
   30.710     2786
   30.725     2816
   30.740     2816
   30.755     2792
   30.770     2824
   30.785     2819
   30.800     2774
   30.815     2815
   30.830     2853
   30.845     2812
   30.860     2776
   30.875     2718
   30.890     2808
   30.905     2773
   30.920     2777
   30.935     2780
   30.950     2799
   30.965     2824
   30.980     2747
   30.995     2787
   31.010     2726
   31.025     2709
   31.040     2792
   31.055     2736
   31.070     2712
   31.085     2762
   31.100     2705
   31.115     2677
   31.130     2684
   31.145     2700
   31.160     2682
   31.175     2715
   31.190     2717
   31.205     2731
   31.220     2773
   31.235     2729
   31.250     2772
   31.265     2695
   31.280     2711
   31.295     2656
   31.310     2737
   31.325     2697
   31.340     2636
   31.355     2662
   31.370     2668
   31.385     2694
   31.400     2747
   31.415     2703
   31.430     2652
   31.445     2738
   31.460     2649
   31.475     2755
   31.490     2675
   31.505     2670
   31.520     2720
   31.535     2643
   31.550     2598
   31.565     2687
   31.580     2755
   31.595     2655
   31.610     2673
   31.625     2569
   31.640     2597
   31.655     2670
   31.670     2703
   31.685     2658
   31.700     2662
   31.715     2692
   31.730     2804
   31.745     2742
   31.760     2811
   31.775     2808
   31.790     2715
   31.805     2722
   31.820     2768
   31.835     2803
   31.850     2787
   31.865     2825
   31.880     2775
   31.895     2671
   31.910     2728
   31.925     2681
   31.940     2786
   31.955     2663
   31.970     2657
   31.985     2626
   32.000     2621
   32.015     2645
   32.030     2640
   32.045     2755
   32.060     2674
   32.075     2627
   32.090     2643
   32.105     2625
   32.120     2580
   32.135     2554
   32.150     2678
   32.165     2613
   32.180     2633
   32.195     2608
   32.210     2618
   32.225     2669
   32.240     2671
   32.255     2692
   32.270     2625
   32.285     2655
   32.300     2681
   32.315     2721
   32.330     2792
   32.345     2698
   32.360     2808
   32.375     2768
   32.390     2716
   32.405     2686
   32.420     2743
   32.435     2825
   32.450     2766
   32.465     2775
   32.480     2699
   32.495     2725
   32.510     2811
   32.525     2776
   32.540     2803
   32.555     2706
   32.570     2782
   32.585     2782
   32.600     2727
   32.615     2740
   32.630     2672
   32.645     2715
   32.660     2736
   32.675     2718
   32.690     2625
   32.705     2631
   32.720     2648
   32.735     2606
   32.750     2763
   32.765     2670
   32.780     2678
   32.795     2597
   32.810     2626
   32.825     2623
   32.840     2665
   32.855     2618
   32.870     2512
   32.885     2583
   32.900     2562
   32.915     2633
   32.930     2588
   32.945     2571
   32.960     2653
   32.975     2542
   32.990     2599
   33.005     2605
   33.020     2539
   33.035     2525
   33.050     2506
   33.065     2465
   33.080     2481
   33.095     2615
   33.110     2435
   33.125     2422
   33.140     2491
   33.155     2476
   33.170     2473
   33.185     2516
   33.200     2496
   33.215     2522
   33.230     2438
   33.245     2432
   33.260     2416
   33.275     2457
   33.290     2431
   33.305     2498
   33.320     2449
   33.335     2452
   33.350     2397
   33.365     2316
   33.380     2403
   33.395     2451
   33.410     2451
   33.425     2426
   33.440     2386
   33.455     2361
   33.470     2416
   33.485     2396
   33.500     2375
   33.515     2415
   33.530     2346
   33.545     2410
   33.560     2422
   33.575     2399
   33.590     2425
   33.605     2475
   33.620     2403
   33.635     2412
   33.650     2419
   33.665     2485
   33.680     2497
   33.695     2372
   33.710     2392
   33.725     2441
   33.740     2381
   33.755     2328
   33.770     2423
   33.785     2424
   33.800     2397
   33.815     2419
   33.830     2440
   33.845     2553
   33.860     2493
   33.875     2466
   33.890     2479
   33.905     2473
   33.920     2424
   33.935     2455
   33.950     2487
   33.965     2523
   33.980     2538
   33.995     2531
   34.010     2647
   34.025     2626
   34.040     2620
   34.055     2664
   34.070     2663
   34.085     2613
   34.100     2630
   34.115     2685
   34.130     2649
   34.145     2632
   34.160     2693
   34.175     2596
   34.190     2487
   34.205     2532
   34.220     2495
   34.235     2492
   34.250     2471
   34.265     2488
   34.280     2392
   34.295     2473
   34.310     2518
   34.325     2411
   34.340     2381
   34.355     2376
   34.370     2380
   34.385     2371
   34.400     2420
   34.415     2377
   34.430     2335
   34.445     2291
   34.460     2347
   34.475     2307
   34.490     2296
   34.505     2301
   34.520     2284
   34.535     2283
   34.550     2313
   34.565     2327
   34.580     2299
   34.595     2230
   34.610     2342
   34.625     2306
   34.640     2261
   34.655     2303
   34.670     2376
   34.685     2411
   34.700     2295
   34.715     2353
   34.730     2241
   34.745     2249
   34.760     2290
   34.775     2300
   34.790     2273
   34.805     2332
   34.820     2332
   34.835     2287
   34.850     2349
   34.865     2369
   34.880     2398
   34.895     2348
   34.910     2417
   34.925     2403
   34.940     2421
   34.955     2460
   34.970     2401
   34.985     2423
   35.000     2507
   35.015     2494
   35.030     2583
   35.045     2575
   35.060     2576
   35.075     2584
   35.090     2651
   35.105     2680
   35.120     2613
   35.135     2691
   35.150     2686
   35.165     2657
   35.180     2658
   35.195     2697
   35.210     2630
   35.225     2573
   35.240     2597
   35.255     2527
   35.270     2536
   35.285     2588
   35.300     2598
   35.315     2521
   35.330     2498
   35.345     2547
   35.360     2493
   35.375     2551
   35.390     2519
   35.405     2529
   35.420     2477
   35.435     2464
   35.450     2426
   35.465     2435
   35.480     2463
   35.495     2459
   35.510     2383
   35.525     2342
   35.540     2404
   35.555     2422
   35.570     2346
   35.585     2370
   35.600     2383
   35.615     2434
   35.630     2439
   35.645     2441
   35.660     2355
   35.675     2357
   35.690     2291
   35.705     2339
   35.720     2312
   35.735     2350
   35.750     2318
   35.765     2383
   35.780     2338
   35.795     2359
   35.810     2242
   35.825     2401
   35.840     2378
   35.855     2361
   35.870     2361
   35.885     2327
   35.900     2374
   35.915     2432
   35.930     2348
   35.945     2272
   35.960     2333
   35.975     2343
   35.990     2424
   36.005     2455
   36.020     2417
   36.035     2405
   36.050     2417
   36.065     2308
   36.080     2361
   36.095     2316
   36.110     2390
   36.125     2449
   36.140     2470
   36.155     2426
   36.170     2374
   36.185     2424
   36.200     2426
   36.215     2367
   36.230     2501
   36.245     2492
   36.260     2438
   36.275     2383
   36.290     2410
   36.305     2376
   36.320     2405
   36.335     2380
   36.350     2392
   36.365     2381
   36.380     2358
   36.395     2325
   36.410     2348
   36.425     2300
   36.440     2284
   36.455     2201
   36.470     2228
   36.485     2273
   36.500     2242
   36.515     2237
   36.530     2225
   36.545     2198
   36.560     2253
   36.575     2219
   36.590     2133
   36.605     2220
   36.620     2167
   36.635     2215
   36.650     2173
   36.665     2203
   36.680     2115
   36.695     2152
   36.710     2159
   36.725     2181
   36.740     2192
   36.755     2205
   36.770     2117
   36.785     2174
   36.800     2167
   36.815     2162
   36.830     2114
   36.845     2148
   36.860     2130
   36.875     2177
   36.890     2179
   36.905     2174
   36.920     2199
   36.935     2216
   36.950     2197
   36.965     2138
   36.980     2122
   36.995     2159
   37.010     2185
   37.025     2178
   37.040     2077
   37.055     2127
   37.070     2232
   37.085     2154
   37.100     2180
   37.115     2172
   37.130     2157
   37.145     2134
   37.160     2171
   37.175     2206
   37.190     2199
   37.205     2180
   37.220     2146
   37.235     2189
   37.250     2128
   37.265     2194
   37.280     2248
   37.295     2228
   37.310     2228
   37.325     2197
   37.340     2223
   37.355     2272
   37.370     2333
   37.385     2324
   37.400     2350
   37.415     2329
   37.430     2382
   37.445     2370
   37.460     2418
   37.475     2453
   37.490     2402
   37.505     2492
   37.520     2588
   37.535     2592
   37.550     2717
   37.565     2701
   37.580     2810
   37.595     2845
   37.610     2807
   37.625     2880
   37.640     2861
   37.655     2959
   37.670     3072
   37.685     3014
   37.700     3086
   37.715     3026
   37.730     2914
   37.745     2982
   37.760     2983
   37.775     2865
   37.790     2840
   37.805     2837
   37.820     2736
   37.835     2613
   37.850     2668
   37.865     2604
   37.880     2587
   37.895     2538
   37.910     2428
   37.925     2373
   37.940     2366
   37.955     2363
   37.970     2348
   37.985     2286
   38.000     2216
   38.015     2206
   38.030     2287
   38.045     2218
   38.060     2162
   38.075     2152
   38.090     2176
   38.105     2126
   38.120     2120
   38.135     2167
   38.150     2147
   38.165     2138
   38.180     2092
   38.195     2113
   38.210     2135
   38.225     2150
   38.240     2160
   38.255     2090
   38.270     2096
   38.285     2171
   38.300     2129
   38.315     2127
   38.330     2098
   38.345     2070
   38.360     2070
   38.375     2055
   38.390     2124
   38.405     2106
   38.420     2049
   38.435     2085
   38.450     2104
   38.465     2054
   38.480     2024
   38.495     2111
   38.510     2050
   38.525     2044
   38.540     1992
   38.555     2010
   38.570     1980
   38.585     2016
   38.600     2068
   38.615     2016
   38.630     2013
   38.645     2020
   38.660     2084
   38.675     2045
   38.690     2039
   38.705     2019
   38.720     2028
   38.735     2050
   38.750     2013
   38.765     2102
   38.780     2111
   38.795     2126
   38.810     2083
   38.825     2041
   38.840     2027
   38.855     1998
   38.870     2109
   38.885     2086
   38.900     2068
   38.915     2100
   38.930     2005
   38.945     2058
   38.960     2050
   38.975     2087
   38.990     2093
   39.005     2076
   39.020     2131
   39.035     2082
   39.050     2095
   39.065     2104
   39.080     2109
   39.095     2112
   39.110     2102
   39.125     2109
   39.140     2143
   39.155     2118
   39.170     2091
   39.185     2110
   39.200     2066
   39.215     2043
   39.230     2148
   39.245     2055
   39.260     2117
   39.275     2082
   39.290     2115
   39.305     2058
   39.320     2153
   39.335     2060
   39.350     2069
   39.365     2014
   39.380     2040
   39.395     2133
   39.410     2122
   39.425     2227
   39.440     2128
   39.455     2133
   39.470     2092
   39.485     2150
   39.500     2177
   39.515     2227
   39.530     2191
   39.545     2244
   39.560     2256
   39.575     2257
   39.590     2227
   39.605     2200
   39.620     2341
   39.635     2342
   39.650     2258
   39.665     2245
   39.680     2359
   39.695     2427
   39.710     2463
   39.725     2401
   39.740     2493
   39.755     2548
   39.770     2615
   39.785     2622
   39.800     2720
   39.815     2846
   39.830     2841
   39.845     3025
   39.860     3104
   39.875     3086
   39.890     3321
   39.905     3481
   39.920     3665
   39.935     3676
   39.950     3768
   39.965     3928
   39.980     4102
   39.995     4258
   40.010     4235
   40.025     4423
   40.040     4436
   40.055     4499
   40.070     4479
   40.085     4622
   40.100     4691
   40.115     4656
   40.130     4665
   40.145     4619
   40.160     4670
   40.175     4618
   40.190     4574
   40.205     4549
   40.220     4639
   40.235     4715
   40.250     4707
   40.265     4685
   40.280     4752
   40.295     4758
   40.310     4625
   40.325     4703
   40.340     4828
   40.355     4837
   40.370     4812
   40.385     5047
   40.400     5035
   40.415     5091
   40.430     5230
   40.445     5112
   40.460     5154
   40.475     5226
   40.490     5273
   40.505     5260
   40.520     5213
   40.535     5125
   40.550     5167
   40.565     5039
   40.580     4947
   40.595     4742
   40.610     4650
   40.625     4508
   40.640     4432
   40.655     4166
   40.670     4018
   40.685     3974
   40.700     3799
   40.715     3511
   40.730     3530
   40.745     3346
   40.760     3270
   40.775     3106
   40.790     2917
   40.805     2980
   40.820     2787
   40.835     2712
   40.850     2688
   40.865     2608
   40.880     2528
   40.895     2508
   40.910     2463
   40.925     2383
   40.940     2376
   40.955     2351
   40.970     2340
   40.985     2307
   41.000     2303
   41.015     2299
   41.030     2252
   41.045     2176
   41.060     2182
   41.075     2241
   41.090     2217
   41.105     2159
   41.120     2192
   41.135     2100
   41.150     2167
   41.165     2131
   41.180     2116
   41.195     2140
   41.210     2178
   41.225     2168
   41.240     2192
   41.255     2214
   41.270     2170
   41.285     2222
   41.300     2215
   41.315     2194
   41.330     2228
   41.345     2193
   41.360     2220
   41.375     2259
   41.390     2322
   41.405     2303
   41.420     2310
   41.435     2312
   41.450     2370
   41.465     2410
   41.480     2452
   41.495     2538
   41.510     2646
   41.525     2644
   41.540     2696
   41.555     2801
   41.570     2851
   41.585     3005
   41.600     3055
   41.615     3091
   41.630     3039
   41.645     3204
   41.660     3300
   41.675     3432
   41.690     3376
   41.705     3503
   41.720     3504
   41.735     3465
   41.750     3493
   41.765     3467
   41.780     3302
   41.795     3347
   41.810     3301
   41.825     3193
   41.840     3188
   41.855     3095
   41.870     2994
   41.885     3018
   41.900     2927
   41.915     2750
   41.930     2663
   41.945     2620
   41.960     2552
   41.975     2475
   41.990     2402
   42.005     2416
   42.020     2346
   42.035     2178
   42.050     2164
   42.065     2138
   42.080     2058
   42.095     2090
   42.110     2072
   42.125     2085
   42.140     1987
   42.155     1943
   42.170     2019
   42.185     1999
   42.200     1903
   42.215     1964
   42.230     1940
   42.245     1953
   42.260     1874
   42.275     1864
   42.290     1870
   42.305     1872
   42.320     1857
   42.335     1836
   42.350     1842
   42.365     1781
   42.380     1837
   42.395     1865
   42.410     1831
   42.425     1855
   42.440     1825
   42.455     1746
   42.470     1835
   42.485     1780
   42.500     1779
   42.515     1808
   42.530     1744
   42.545     1811
   42.560     1778
   42.575     1834
   42.590     1810
   42.605     1786
   42.620     1767
   42.635     1759
   42.650     1687
   42.665     1760
   42.680     1740
   42.695     1730
   42.710     1729
   42.725     1785
   42.740     1819
   42.755     1771
   42.770     1710
   42.785     1741
   42.800     1673
   42.815     1697
   42.830     1750
   42.845     1793
   42.860     1704
   42.875     1762
   42.890     1709
   42.905     1663
   42.920     1736
   42.935     1753
   42.950     1667
   42.965     1719
   42.980     1725
   42.995     1727
   43.010     1734
   43.025     1676
   43.040     1685
   43.055     1714
   43.070     1693
   43.085     1754
   43.100     1712
   43.115     1712
   43.130     1711
   43.145     1718
   43.160     1759
   43.175     1699
   43.190     1683
   43.205     1694
   43.220     1668
   43.235     1680
   43.250     1729
   43.265     1765
   43.280     1743
   43.295     1688
   43.310     1657
   43.325     1657
   43.340     1689
   43.355     1702
   43.370     1738
   43.385     1744
   43.400     1709
   43.415     1698
   43.430     1662
   43.445     1795
   43.460     1697
   43.475     1667
   43.490     1743
   43.505     1763
   43.520     1744
   43.535     1749
   43.550     1662
   43.565     1759
   43.580     1773
   43.595     1784
   43.610     1764
   43.625     1756
   43.640     1742
   43.655     1725
   43.670     1721
   43.685     1686
   43.700     1726
   43.715     1763
   43.730     1738
   43.745     1734
   43.760     1729
   43.775     1817
   43.790     1744
   43.805     1754
   43.820     1728
   43.835     1733
   43.850     1809
   43.865     1804
   43.880     1804
   43.895     1795
   43.910     1785
   43.925     1788
   43.940     1752
   43.955     1783
   43.970     1716
   43.985     1754
   44.000     1788
   44.015     1815
   44.030     1767
   44.045     1734
   44.060     1729
   44.075     1734
   44.090     1730
   44.105     1802
   44.120     1787
   44.135     1803
   44.150     1733
   44.165     1776
   44.180     1788
   44.195     1726
   44.210     1703
   44.225     1727
   44.240     1829
   44.255     1713
   44.270     1719
   44.285     1730
   44.300     1751
   44.315     1709
   44.330     1762
   44.345     1731
   44.360     1755
   44.375     1706
   44.390     1703
   44.405     1701
   44.420     1731
   44.435     1742
   44.450     1669
   44.465     1635
   44.480     1643
   44.495     1657
   44.510     1626
   44.525     1613
   44.540     1656
   44.555     1672
   44.570     1697
   44.585     1647
   44.600     1649
   44.615     1657
   44.630     1660
   44.645     1744
   44.660     1642
   44.675     1686
   44.690     1666
   44.705     1593
   44.720     1595
   44.735     1612
   44.750     1632
   44.765     1669
   44.780     1669
   44.795     1637
   44.810     1642
   44.825     1662
   44.840     1544
   44.855     1607
   44.870     1561
   44.885     1604
   44.900     1622
   44.915     1636
   44.930     1579
   44.945     1608
   44.960     1593
   44.975     1569
   44.990     1574
   45.005     1561
   45.020     1540
   45.035     1634
   45.050     1622
   45.065     1585
   45.080     1588
   45.095     1585
   45.110     1573
   45.125     1547
   45.140     1508
   45.155     1562
   45.170     1606
   45.185     1602
   45.200     1591
   45.215     1565
   45.230     1574
   45.245     1573
   45.260     1584
   45.275     1572
   45.290     1545
   45.305     1563
   45.320     1583
   45.335     1590
   45.350     1570
   45.365     1569
   45.380     1663
   45.395     1593
   45.410     1587
   45.425     1578
   45.440     1610
   45.455     1596
   45.470     1590
   45.485     1653
   45.500     1692
   45.515     1644
   45.530     1677
   45.545     1669
   45.560     1695
   45.575     1748
   45.590     1795
   45.605     1784
   45.620     1753
   45.635     1770
   45.650     1792
   45.665     1845
   45.680     1788
   45.695     1781
   45.710     1755
   45.725     1746
   45.740     1751
   45.755     1833
   45.770     1795
   45.785     1802
   45.800     1789
   45.815     1694
   45.830     1694
   45.845     1633
   45.860     1703
   45.875     1630
   45.890     1642
   45.905     1665
   45.920     1635
   45.935     1525
   45.950     1561
   45.965     1570
   45.980     1527
   45.995     1532
   46.010     1565
   46.025     1540
   46.040     1524
   46.055     1491
   46.070     1533
   46.085     1514
   46.100     1551
   46.115     1584
   46.130     1514
   46.145     1554
   46.160     1471
   46.175     1525
   46.190     1537
   46.205     1509
   46.220     1498
   46.235     1433
   46.250     1498
   46.265     1523
   46.280     1496
   46.295     1474
   46.310     1491
   46.325     1532
   46.340     1537
   46.355     1533
   46.370     1503
   46.385     1483
   46.400     1453
   46.415     1462
   46.430     1551
   46.445     1556
   46.460     1506
   46.475     1522
   46.490     1420
   46.505     1523
   46.520     1551
   46.535     1471
   46.550     1493
   46.565     1459
   46.580     1495
   46.595     1506
   46.610     1476
   46.625     1484
   46.640     1481
   46.655     1516
   46.670     1535
   46.685     1530
   46.700     1464
   46.715     1376
   46.730     1422
   46.745     1451
   46.760     1467
   46.775     1545
   46.790     1503
   46.805     1485
   46.820     1474
   46.835     1434
   46.850     1458
   46.865     1471
   46.880     1538
   46.895     1485
   46.910     1491
   46.925     1444
   46.940     1430
   46.955     1485
   46.970     1515
   46.985     1500
   47.000     1478
   47.015     1442
   47.030     1516
   47.045     1508
   47.060     1529
   47.075     1476
   47.090     1465
   47.105     1434
   47.120     1433
   47.135     1459
   47.150     1465
   47.165     1438
   47.180     1453
   47.195     1394
   47.210     1493
   47.225     1473
   47.240     1436
   47.255     1479
   47.270     1474
   47.285     1487
   47.300     1475
   47.315     1499
   47.330     1469
   47.345     1477
   47.360     1474
   47.375     1477
   47.390     1513
   47.405     1427
   47.420     1444
   47.435     1485
   47.450     1486
   47.465     1504
   47.480     1474
   47.495     1447
   47.510     1499
   47.525     1439
   47.540     1462
   47.555     1454
   47.570     1408
   47.585     1452
   47.600     1396
   47.615     1403
   47.630     1479
   47.645     1420
   47.660     1461
   47.675     1468
   47.690     1472
   47.705     1412
   47.720     1454
   47.735     1422
   47.750     1378
   47.765     1399
   47.780     1395
   47.795     1371
   47.810     1409
   47.825     1363
   47.840     1377
   47.855     1412
   47.870     1380
   47.885     1418
   47.900     1433
   47.915     1490
   47.930     1479
   47.945     1363
   47.960     1406
   47.975     1401
   47.990     1386
   48.005     1378
   48.020     1375
   48.035     1420
   48.050     1486
   48.065     1423
   48.080     1403
   48.095     1422
   48.110     1475
   48.125     1429
   48.140     1446
   48.155     1405
   48.170     1394
   48.185     1437
   48.200     1411
   48.215     1441
   48.230     1455
   48.245     1483
   48.260     1454
   48.275     1426
   48.290     1503
   48.305     1469
   48.320     1493
   48.335     1422
   48.350     1459
   48.365     1469
   48.380     1486
   48.395     1453
   48.410     1460
   48.425     1501
   48.440     1520
   48.455     1452
   48.470     1504
   48.485     1516
   48.500     1494
   48.515     1579
   48.530     1564
   48.545     1568
   48.560     1525
   48.575     1572
   48.590     1543
   48.605     1607
   48.620     1586
   48.635     1632
   48.650     1530
   48.665     1552
   48.680     1583
   48.695     1558
   48.710     1572
   48.725     1496
   48.740     1440
   48.755     1519
   48.770     1567
   48.785     1529
   48.800     1478
   48.815     1477
   48.830     1464
   48.845     1434
   48.860     1444
   48.875     1418
   48.890     1413
   48.905     1431
   48.920     1488
   48.935     1429
   48.950     1422
   48.965     1412
   48.980     1415
   48.995     1463
   49.010     1429
   49.025     1433
   49.040     1381
   49.055     1433
   49.070     1467
   49.085     1474
   49.100     1441
   49.115     1391
   49.130     1362
   49.145     1366
   49.160     1399
   49.175     1350
   49.190     1363
   49.205     1364
   49.220     1369
   49.235     1413
   49.250     1392
   49.265     1412
   49.280     1407
   49.295     1406
   49.310     1396
   49.325     1354
   49.340     1343
   49.355     1351
   49.370     1354
   49.385     1391
   49.400     1396
   49.415     1351
   49.430     1300
   49.445     1358
   49.460     1364
   49.475     1372
   49.490     1361
   49.505     1397
   49.520     1327
   49.535     1374
   49.550     1350
   49.565     1388
   49.580     1365
   49.595     1363
   49.610     1369
   49.625     1340
   49.640     1374
   49.655     1308
   49.670     1362
   49.685     1312
   49.700     1321
   49.715     1379
   49.730     1334
   49.745     1355
   49.760     1326
   49.775     1293
   49.790     1265
   49.805     1293
   49.820     1357
   49.835     1377
   49.850     1402
   49.865     1385
   49.880     1360
   49.895     1306
   49.910     1319
   49.925     1286
   49.940     1318
   49.955     1298
   49.970     1261
   49.985     1349
   50.000     1320
   50.015     1295
   50.030     1308
   50.045     1294
   50.060     1290
   50.075     1308
   50.090     1264
   50.105     1239
   50.120     1286
   50.135     1284
   50.150     1270
   50.165     1309
   50.180     1363
   50.195     1314
   50.210     1309
   50.225     1318
   50.240     1319
   50.255     1255
   50.270     1301
   50.285     1338
   50.300     1311
   50.315     1292
   50.330     1333
   50.345     1248
   50.360     1252
   50.375     1269
   50.390     1346
   50.405     1264
   50.420     1312
   50.435     1355
   50.450     1257
   50.465     1225
   50.480     1275
   50.495     1284
   50.510     1302
   50.525     1302
   50.540     1249
   50.555     1279
   50.570     1310
   50.585     1304
   50.600     1244
   50.615     1290
   50.630     1328
   50.645     1331
   50.660     1286
   50.675     1276
   50.690     1263
   50.705     1260
   50.720     1292
   50.735     1264
   50.750     1315
   50.765     1303
   50.780     1272
   50.795     1282
   50.810     1283
   50.825     1272
   50.840     1295
   50.855     1300
   50.870     1321
   50.885     1308
   50.900     1284
   50.915     1297
   50.930     1280
   50.945     1312
   50.960     1267
   50.975     1278
   50.990     1276
   51.005     1284
   51.020     1236
   51.035     1296
   51.050     1266
   51.065     1325
   51.080     1293
   51.095     1263
   51.110     1291
   51.125     1330
   51.140     1279
   51.155     1314
   51.170     1287
   51.185     1345
   51.200     1319
   51.215     1302
   51.230     1283
   51.245     1320
   51.260     1342
   51.275     1305
   51.290     1341
   51.305     1328
   51.320     1393
   51.335     1419
   51.350     1420
   51.365     1416
   51.380     1415
   51.395     1418
   51.410     1422
   51.425     1385
   51.440     1424
   51.455     1375
   51.470     1437
   51.485     1473
   51.500     1458
   51.515     1479
   51.530     1498
   51.545     1482
   51.560     1501
   51.575     1514
   51.590     1459
   51.605     1436
   51.620     1450
   51.635     1483
   51.650     1440
   51.665     1434
   51.680     1441
   51.695     1429
   51.710     1430
   51.725     1440
   51.740     1438
   51.755     1371
   51.770     1309
   51.785     1375
   51.800     1385
   51.815     1404
   51.830     1346
   51.845     1378
   51.860     1416
   51.875     1384
   51.890     1357
   51.905     1372
   51.920     1356
   51.935     1411
   51.950     1417
   51.965     1378
   51.980     1345
   51.995     1324
   52.010     1355
   52.025     1361
   52.040     1330
   52.055     1327
   52.070     1345
   52.085     1355
   52.100     1367
   52.115     1320
   52.130     1312
   52.145     1320
   52.160     1331
   52.175     1342
   52.190     1323
   52.205     1316
   52.220     1343
   52.235     1365
   52.250     1316
   52.265     1352
   52.280     1327
   52.295     1372
   52.310     1387
   52.325     1395
   52.340     1376
   52.355     1431
   52.370     1437
   52.385     1457
   52.400     1439
   52.415     1487
   52.430     1538
   52.445     1509
   52.460     1513
   52.475     1491
   52.490     1487
   52.505     1491
   52.520     1525
   52.535     1532
   52.550     1549
   52.565     1525
   52.580     1470
   52.595     1536
   52.610     1513
   52.625     1546
   52.640     1518
   52.655     1399
   52.670     1464
   52.685     1415
   52.700     1459
   52.715     1425
   52.730     1409
   52.745     1317
   52.760     1307
   52.775     1300
   52.790     1354
   52.805     1354
   52.820     1305
   52.835     1345
   52.850     1324
   52.865     1324
   52.880     1310
   52.895     1293
   52.910     1323
   52.925     1297
   52.940     1270
   52.955     1299
   52.970     1224
   52.985     1202
   53.000     1213
   53.015     1237
   53.030     1214
   53.045     1256
   53.060     1275
   53.075     1251
   53.090     1218
   53.105     1169
   53.120     1241
   53.135     1214
   53.150     1211
   53.165     1262
   53.180     1243
   53.195     1232
   53.210     1240
   53.225     1209
   53.240     1168
   53.255     1193
   53.270     1227
   53.285     1216
   53.300     1237
   53.315     1244
   53.330     1200
   53.345     1262
   53.360     1243
   53.375     1250
   53.390     1211
   53.405     1200
   53.420     1176
   53.435     1175
   53.450     1250
   53.465     1184
   53.480     1215
   53.495     1181
   53.510     1219
   53.525     1232
   53.540     1208
   53.555     1197
   53.570     1203
   53.585     1221
   53.600     1232
   53.615     1217
   53.630     1193
   53.645     1178
   53.660     1249
   53.675     1249
   53.690     1245
   53.705     1219
   53.720     1205
   53.735     1241
   53.750     1237
   53.765     1251
   53.780     1277
   53.795     1258
   53.810     1225
   53.825     1248
   53.840     1237
   53.855     1229
   53.870     1239
   53.885     1281
   53.900     1215
   53.915     1269
   53.930     1260
   53.945     1190
   53.960     1221
   53.975     1268
   53.990     1268
   54.005     1239
   54.020     1212
   54.035     1180
   54.050     1204
   54.065     1206
   54.080     1200
   54.095     1187
   54.110     1213
   54.125     1189
   54.140     1201
   54.155     1212
   54.170     1175
   54.185     1175
   54.200     1191
   54.215     1184
   54.230     1198
   54.245     1237
   54.260     1201
   54.275     1191
   54.290     1186
   54.305     1163
   54.320     1175
   54.335     1188
   54.350     1179
   54.365     1170
   54.380     1189
   54.395     1178
   54.410     1174
   54.425     1189
   54.440     1158
   54.455     1137
   54.470     1166
   54.485     1139
   54.500     1178
   54.515     1182
   54.530     1145
   54.545     1155
   54.560     1156
   54.575     1186
   54.590     1154
   54.605     1138
   54.620     1267
   54.635     1258
   54.650     1166
   54.665     1178
   54.680     1187
   54.695     1163
   54.710     1160
   54.725     1168
   54.740     1198
   54.755     1185
   54.770     1205
   54.785     1218
   54.800     1209
   54.815     1134
   54.830     1205
   54.845     1134
   54.860     1191
   54.875     1184
   54.890     1115
   54.905     1137
   54.920     1154
   54.935     1164
   54.950     1152
   54.965     1167
   54.980     1150
   54.995     1114
   55.010     1159
   55.025     1171
   55.040     1175
   55.055     1188
   55.070     1179
   55.085     1191
   55.100     1182
   55.115     1187
   55.130     1160
   55.145     1218
   55.160     1151
   55.175     1168
   55.190     1207
   55.205     1185
   55.220     1177
   55.235     1191
   55.250     1217
   55.265     1204
   55.280     1216
   55.295     1205
   55.310     1195
   55.325     1231
   55.340     1209
   55.355     1229
   55.370     1265
   55.385     1239
   55.400     1231
   55.415     1261
   55.430     1246
   55.445     1275
   55.460     1300
   55.475     1312
   55.490     1324
   55.505     1252
   55.520     1289
   55.535     1256
   55.550     1305
   55.565     1320
   55.580     1291
   55.595     1296
   55.610     1312
   55.625     1303
   55.640     1303
   55.655     1274
   55.670     1253
   55.685     1238
   55.700     1251
   55.715     1218
   55.730     1190
   55.745     1174
   55.760     1230
   55.775     1190
   55.790     1229
   55.805     1182
   55.820     1192
   55.835     1224
   55.850     1221
   55.865     1174
   55.880     1192
   55.895     1204
   55.910     1199
   55.925     1189
   55.940     1153
   55.955     1169
   55.970     1148
   55.985     1222
   56.000     1187
   56.015     1123
   56.030     1174
   56.045     1153
   56.060     1152
   56.075     1160
   56.090     1176
   56.105     1142
   56.120     1119
   56.135     1152
   56.150     1158
   56.165     1167
   56.180     1151
   56.195     1152
   56.210     1159
   56.225     1080
   56.240     1144
   56.255     1081
   56.270     1146
   56.285     1131
   56.300     1129
   56.315     1130
   56.330     1134
   56.345     1112
   56.360     1096
   56.375     1138
   56.390     1154
   56.405     1123
   56.420     1122
   56.435     1108
   56.450     1082
   56.465     1118
   56.480     1165
   56.495     1127
   56.510     1133
   56.525     1196
   56.540     1180
   56.555     1080
   56.570     1129
   56.585     1094
   56.600     1127
   56.615     1167
   56.630     1154
   56.645     1152
   56.660     1111
   56.675     1113
   56.690     1127
   56.705     1127
   56.720     1136
   56.735     1145
   56.750     1117
   56.765     1144
   56.780     1119
   56.795     1127
   56.810     1141
   56.825     1149
   56.840     1096
   56.855     1132
   56.870     1141
   56.885     1096
   56.900     1087
   56.915     1142
   56.930     1140
   56.945     1142
   56.960     1129
   56.975     1087
   56.990     1101
   57.005     1151
   57.020     1104
   57.035     1120
   57.050     1174
   57.065     1176
   57.080     1121
   57.095     1069
   57.110     1098
   57.125     1070
   57.140     1076
   57.155     1082
   57.170     1058
   57.185     1094
   57.200     1106
   57.215     1088
   57.230     1149
   57.245     1117
   57.260     1087
   57.275     1098
   57.290     1103
   57.305     1091
   57.320     1077
   57.335     1057
   57.350     1066
   57.365     1106
   57.380     1126
   57.395     1108
   57.410     1109
   57.425     1097
   57.440     1059
   57.455     1127
   57.470     1042
   57.485     1092
   57.500     1062
   57.515     1090
   57.530     1120
   57.545     1076
   57.560     1086
   57.575     1108
   57.590     1116
   57.605     1141
   57.620     1132
   57.635     1100
   57.650     1104
   57.665     1109
   57.680     1101
   57.695     1080
   57.710     1107
   57.725     1127
   57.740     1132
   57.755     1087
   57.770     1107
   57.785     1071
   57.800     1100
   57.815     1040
   57.830     1072
   57.845     1091
   57.860     1064
   57.875     1062
   57.890     1081
   57.905     1103
   57.920     1091
   57.935     1108
   57.950     1120
   57.965     1084
   57.980     1094
   57.995     1113
   58.010     1100
   58.025     1153
   58.040     1092
   58.055     1103
   58.070     1099
   58.085     1106
   58.100     1115
   58.115     1098
   58.130     1088
   58.145     1091
   58.160     1075
   58.175     1073
   58.190     1104
   58.205     1083
   58.220     1083
   58.235     1055
   58.250     1096
   58.265     1112
   58.280     1092
   58.295     1075
   58.310     1052
   58.325     1059
   58.340     1093
   58.355     1117
   58.370     1086
   58.385     1042
   58.400     1102
   58.415     1123
   58.430     1052
   58.445     1051
   58.460     1059
   58.475     1083
   58.490     1110
   58.505     1124
   58.520     1102
   58.535     1156
   58.550     1112
   58.565     1101
   58.580     1102
   58.595     1125
   58.610     1150
   58.625     1110
   58.640     1130
   58.655     1048
   58.670     1115
   58.685     1088
   58.700     1102
   58.715     1137
   58.730     1073
   58.745     1090
   58.760     1133
   58.775     1072
   58.790     1085
   58.805     1122
   58.820     1086
   58.835     1112
   58.850     1086
   58.865     1126
   58.880     1149
   58.895     1054
   58.910     1071
   58.925     1115
   58.940     1181
   58.955     1102
   58.970     1098
   58.985     1121
   59.000     1128
   59.015     1130
   59.030     1169
   59.045     1123
   59.060     1112
   59.075     1096
   59.090     1134
   59.105     1130
   59.120     1134
   59.135     1176
   59.150     1174
   59.165     1141
   59.180     1163
   59.195     1174
   59.210     1256
   59.225     1218
   59.240     1191
   59.255     1232
   59.270     1239
   59.285     1250
   59.300     1278
   59.315     1275
   59.330     1314
   59.345     1302
   59.360     1405
   59.375     1327
   59.390     1331
   59.405     1375
   59.420     1437
   59.435     1513
   59.450     1537
   59.465     1587
   59.480     1606
   59.495     1695
   59.510     1663
   59.525     1670
   59.540     1683
   59.555     1765
   59.570     1689
   59.585     1761
   59.600     1756
   59.615     1765
   59.630     1712
   59.645     1788
   59.660     1713
   59.675     1767
   59.690     1748
   59.705     1760
   59.720     1734
   59.735     1709
   59.750     1697
   59.765     1614
   59.780     1598
   59.795     1543
   59.810     1463
   59.825     1508
   59.840     1517
   59.855     1450
   59.870     1427
   59.885     1404
   59.900     1357
   59.915     1378
   59.930     1389
   59.945     1286
   59.960     1302
   59.975     1256
   59.990     1250
   60.005     1264
   60.020     1218
   60.035     1183
   60.050     1188
   60.065     1203
   60.080     1196
   60.095     1134
   60.110     1169
   60.125     1178
   60.140     1125
   60.155     1176
   60.170     1141
   60.185     1185
   60.200     1133
   60.215     1094
   60.230     1107
   60.245     1133
   60.260     1126
   60.275     1094
   60.290     1056
   60.305     1060
   60.320     1080
   60.335     1145
   60.350     1143
   60.365     1130
   60.380     1182
   60.395     1104
   60.410     1095
   60.425     1078
   60.440     1123
   60.455     1103
   60.470     1138
   60.485     1099
   60.500     1147
   60.515     1166
   60.530     1108
   60.545     1154
   60.560     1134
   60.575     1140
   60.590     1105
   60.605     1130
   60.620     1119
   60.635     1127
   60.650     1151
   60.665     1171
   60.680     1097
   60.695     1085
   60.710     1124
   60.725     1163
   60.740     1140
   60.755     1126
   60.770     1094
   60.785     1142
   60.800     1115
   60.815     1150
   60.830     1111
   60.845     1078
   60.860     1100
   60.875     1072
   60.890     1088
   60.905     1081
   60.920     1122
   60.935     1087
   60.950     1054
   60.965     1094
   60.980     1093
   60.995     1135
   61.010     1090
   61.025     1080
   61.040     1064
   61.055     1101
   61.070     1068
   61.085     1084
   61.100     1120
   61.115     1132
   61.130     1090
   61.145     1038
   61.160     1116
   61.175     1087
   61.190     1048
   61.205     1095
   61.220     1044
   61.235     1061
   61.250     1052
   61.265     1054
   61.280     1071
   61.295     1040
   61.310     1021
   61.325     1073
   61.340     1096
   61.355     1034
   61.370     1098
   61.385     1075
   61.400     1126
   61.415     1097
   61.430     1083
   61.445     1077
   61.460     1040
   61.475     1063
   61.490     1084
   61.505     1063
   61.520     1076
   61.535     1098
   61.550     1067
   61.565     1037
   61.580     1054
   61.595     1057
   61.610     1083
   61.625     1065
   61.640     1039
   61.655     1049
   61.670     1046
   61.685     1070
   61.700     1044
   61.715     1045
   61.730     1084
   61.745     1133
   61.760     1113
   61.775     1063
   61.790     1099
   61.805     1053
   61.820     1068
   61.835     1083
   61.850     1058
   61.865     1044
   61.880     1055
   61.895     1116
   61.910     1053
   61.925     1052
   61.940     1067
   61.955     1082
   61.970     1095
   61.985     1055
   62.000     1014
   62.015     1027
   62.030     1022
   62.045     1066
   62.060     1068
   62.075     1088
   62.090     1049
   62.105     1039
   62.120     1148
   62.135     1095
   62.150     1098
   62.165     1113
   62.180     1108
   62.195     1070
   62.210     1039
   62.225     1035
   62.240     1041
   62.255     1079
   62.270     1087
   62.285     1071
   62.300     1100
   62.315     1054
   62.330     1019
   62.345     1008
   62.360     1048
   62.375     1069
   62.390     1052
   62.405     1056
   62.420     1076
   62.435     1116
   62.450     1093
   62.465     1039
   62.480     1049
   62.495     1110
   62.510     1046
   62.525     1074
   62.540     1102
   62.555     1100
   62.570     1049
   62.585     1087
   62.600     1099
   62.615     1113
   62.630     1109
   62.645     1093
   62.660     1088
   62.675     1039
   62.690     1137
   62.705     1115
   62.720     1113
   62.735     1069
   62.750     1089
   62.765     1082
   62.780     1093
   62.795     1122
   62.810     1172
   62.825     1136
   62.840     1140
   62.855     1155
   62.870     1135
   62.885     1152
   62.900     1115
   62.915     1136
   62.930     1180
   62.945     1208
   62.960     1237
   62.975     1231
   62.990     1216
   63.005     1240
   63.020     1198
   63.035     1240
   63.050     1277
   63.065     1208
   63.080     1221
   63.095     1238
   63.110     1247
   63.125     1211
   63.140     1275
   63.155     1258
   63.170     1218
   63.185     1205
   63.200     1185
   63.215     1221
   63.230     1196
   63.245     1250
   63.260     1219
   63.275     1220
   63.290     1195
   63.305     1214
   63.320     1234
   63.335     1218
   63.350     1200
   63.365     1173
   63.380     1192
   63.395     1156
   63.410     1176
   63.425     1240
   63.440     1202
   63.455     1241
   63.470     1205
   63.485     1173
   63.500     1200
   63.515     1198
   63.530     1204
   63.545     1149
   63.560     1189
   63.575     1201
   63.590     1214
   63.605     1231
   63.620     1176
   63.635     1166
   63.650     1126
   63.665     1221
   63.680     1257
   63.695     1164
   63.710     1155
   63.725     1195
   63.740     1189
   63.755     1117
   63.770     1192
   63.785     1138
   63.800     1144
   63.815     1084
   63.830     1125
   63.845     1145
   63.860     1126
   63.875     1140
   63.890     1132
   63.905     1141
   63.920     1126
   63.935     1078
   63.950     1091
   63.965     1139
   63.980     1105
   63.995     1104
   64.010     1152
   64.025     1140
   64.040     1108
   64.055     1116
   64.070     1115
   64.085     1060
   64.100     1072
   64.115     1072
   64.130     1105
   64.145     1099
   64.160     1071
   64.175     1098
   64.190     1054
   64.205     1043
   64.220     1095
   64.235     1056
   64.250     1088
   64.265     1118
   64.280     1064
   64.295     1130
   64.310     1065
   64.325     1058
   64.340     1085
   64.355     1074
   64.370     1022
   64.385     1057
   64.400     1103
   64.415     1060
   64.430     1075
   64.445     1030
   64.460     1008
   64.475     1038
   64.490     1050
   64.505     1044
   64.520     1066
   64.535     1035
   64.550     1031
   64.565     1061
   64.580     1054
   64.595     1082
   64.610     1036
   64.625     1028
   64.640     1049
   64.655     1041
   64.670     1061
   64.685     1016
   64.700     1062
   64.715     1033
   64.730     1002
   64.745     1041
   64.760     1025
   64.775     1014
   64.790     1079
   64.805     1072
   64.820     1000
   64.835     1018
   64.850     1052
   64.865     1056
   64.880     1006
   64.895     1062
   64.910     1078
   64.925     1045
   64.940     1027
   64.955     1026
   64.970     1010
   64.985      995
   65.000     1031
   65.015     1035
   65.030     1064
   65.045     1053
   65.060      987
   65.075     1032
   65.090     1049
   65.105     1062
   65.120     1066
   65.135     1038
   65.150     1034
   65.165     1049
   65.180     1059
   65.195     1054
   65.210     1049
   65.225     1048
   65.240     1087
   65.255     1045
   65.270     1074
   65.285     1059
   65.300     1026
   65.315     1041
   65.330     1056
   65.345     1079
   65.360     1054
   65.375     1085
   65.390     1015
   65.405     1034
   65.420     1070
   65.435     1068
   65.450     1065
   65.465     1073
   65.480     1054
   65.495     1053
   65.510     1075
   65.525     1052
   65.540     1062
   65.555     1043
   65.570     1072
   65.585     1061
   65.600     1048
   65.615     1129
   65.630     1093
   65.645     1065
   65.660     1099
   65.675     1089
   65.690     1164
   65.705     1084
   65.720     1083
   65.735     1103
   65.750     1055
   65.765     1073
   65.780     1138
   65.795     1141
   65.810     1076
   65.825     1089
   65.840     1155
   65.855     1138
   65.870     1106
   65.885     1108
   65.900     1180
   65.915     1168
   65.930     1123
   65.945     1133
   65.960     1136
   65.975     1153
   65.990     1120
   66.005     1143
   66.020     1169
   66.035     1133
   66.050     1195
   66.065     1157
   66.080     1119
   66.095     1110
   66.110     1115
   66.125     1167
   66.140     1130
   66.155     1106
   66.170     1148
   66.185     1132
   66.200     1103
   66.215     1135
   66.230     1120
   66.245     1130
   66.260     1088
   66.275     1088
   66.290     1074
   66.305     1074
   66.320     1126
   66.335     1107
   66.350     1091
   66.365     1081
   66.380     1159
   66.395     1105
   66.410     1117
   66.425     1124
   66.440     1095
   66.455     1066
   66.470     1007
   66.485     1038
   66.500     1102
   66.515     1118
   66.530     1109
   66.545     1142
   66.560     1111
   66.575     1112
   66.590     1080
   66.605     1063
   66.620     1145
   66.635     1080
   66.650     1046
   66.665     1060
   66.680     1107
   66.695     1081
   66.710     1109
   66.725     1110
   66.740     1088
   66.755     1063
   66.770     1101
   66.785     1090
   66.800     1103
   66.815     1079
   66.830     1093
   66.845     1139
   66.860     1050
   66.875     1056
   66.890     1080
   66.905     1061
   66.920     1087
   66.935     1066
   66.950     1093
   66.965     1075
   66.980     1047
   66.995     1059
   67.010     1052
   67.025     1016
   67.040     1071
   67.055     1042
   67.070     1069
   67.085     1058
   67.100     1098
   67.115     1098
   67.130     1083
   67.145      992
   67.160     1070
   67.175     1088
   67.190     1076
   67.205     1045
   67.220     1027
   67.235     1025
   67.250     1021
   67.265     1083
   67.280     1050
   67.295     1070
   67.310     1088
   67.325     1132
   67.340     1093
   67.355     1083
   67.370     1087
   67.385     1057
   67.400     1073
   67.415     1072
   67.430     1117
   67.445     1086
   67.460     1065
   67.475     1033
   67.490     1091
   67.505     1125
   67.520     1085
   67.535     1086
   67.550     1121
   67.565     1155
   67.580     1141
   67.595     1117
   67.610     1135
   67.625     1141
   67.640     1163
   67.655     1143
   67.670     1182
   67.685     1158
   67.700     1086
   67.715     1148
   67.730     1149
   67.745     1190
   67.760     1155
   67.775     1201
   67.790     1158
   67.805     1194
   67.820     1187
   67.835     1107
   67.850     1157
   67.865     1176
   67.880     1228
   67.895     1164
   67.910     1234
   67.925     1192
   67.940     1131
   67.955     1142
   67.970     1168
   67.985     1170
   68.000     1119
   68.015     1100
   68.030     1166
   68.045     1147
   68.060     1171
   68.075     1081
   68.090     1109
   68.105     1117
   68.120     1151
   68.135     1145
   68.150     1141
   68.165     1142
   68.180     1170
   68.195     1120
   68.210     1101
   68.225     1210
   68.240     1148
   68.255     1123
   68.270     1189
   68.285     1190
   68.300     1165
   68.315     1173
   68.330     1153
   68.345     1131
   68.360     1158
   68.375     1227
   68.390     1181
   68.405     1160
   68.420     1216
   68.435     1194
   68.450     1156
   68.465     1209
   68.480     1221
   68.495     1191
   68.510     1180
   68.525     1187
   68.540     1161
   68.555     1150
   68.570     1167
   68.585     1205
   68.600     1147
   68.615     1130
   68.630     1095
   68.645     1122
   68.660     1125
   68.675     1217
   68.690     1167
   68.705     1154
   68.720     1111
   68.735     1136
   68.750     1107
   68.765     1155
   68.780     1164
   68.795     1146
   68.810     1191
   68.825     1164
   68.840     1177
   68.855     1156
   68.870     1130
   68.885     1125
   68.900     1198
   68.915     1159
   68.930     1140
   68.945     1140
   68.960     1166
   68.975     1144
   68.990     1120
   69.005     1127
   69.020     1153
   69.035     1186
   69.050     1123
   69.065     1083
   69.080     1129
   69.095     1161
   69.110     1152
   69.125     1159
   69.140     1123
   69.155     1133
   69.170     1146
   69.185     1156
   69.200     1131
   69.215     1142
   69.230     1102
   69.245     1172
   69.260     1154
   69.275     1127
   69.290     1156
   69.305     1164
   69.320     1133
   69.335     1153
   69.350     1160
   69.365     1240
   69.380     1239
   69.395     1175
   69.410     1178
   69.425     1149
   69.440     1193
   69.455     1239
   69.470     1194
   69.485     1234
   69.500     1179
   69.515     1224
   69.530     1208
   69.545     1230
   69.560     1292
   69.575     1279
   69.590     1250
   69.605     1364
   69.620     1302
   69.635     1336
   69.650     1316
   69.665     1380
   69.680     1371
   69.695     1375
   69.710     1376
   69.725     1352
   69.740     1376
   69.755     1385
   69.770     1370
   69.785     1384
   69.800     1398
   69.815     1310
   69.830     1278
   69.845     1281
   69.860     1287
   69.875     1267
   69.890     1226
   69.905     1221
   69.920     1198
   69.935     1202
   69.950     1215
   69.965     1217
   69.980     1217
   69.995     1162
   70.010     1187
   70.025     1162
   70.040     1126
   70.055     1111
   70.070     1113
   70.085     1115
   70.100     1143
   70.115     1085
   70.130     1058
   70.145     1111
   70.160     1143
   70.175     1104
   70.190     1076
   70.205     1092
   70.220     1072
   70.235     1081
   70.250     1100
   70.265     1110
   70.280     1078
   70.295     1073
   70.310     1062
   70.325     1056
   70.340     1016
   70.355     1022
   70.370     1077
   70.385     1085
   70.400     1049
   70.415     1028
   70.430     1018
   70.445     1034
   70.460     1060
   70.475     1034
   70.490     1075
   70.505     1073
   70.520     1001
   70.535     1053
   70.550     1100
   70.565     1074
   70.580     1067
   70.595      997
   70.610      997
   70.625     1042
   70.640     1062
   70.655     1028
   70.670     1044
   70.685     1016
   70.700     1057
   70.715     1024
   70.730      999
   70.745      990
   70.760     1020
   70.775     1018
   70.790     1060
   70.805     1068
   70.820     1044
   70.835     1040
   70.850     1023
   70.865     1009
   70.880     1020
   70.895     1041
   70.910     1039
   70.925      973
   70.940     1037
   70.955      997
   70.970     1012
   70.985      994
   71.000      993
   71.015     1039
   71.030     1048
   71.045     1017
   71.060     1032
   71.075     1080
   71.090     1039
   71.105     1033
   71.120     1043
   71.135     1015
   71.150     1010
   71.165      953
   71.180     1020
   71.195      990
   71.210     1009
   71.225      984
   71.240      984
   71.255     1007
   71.270     1041
   71.285     1010
   71.300     1031
   71.315     1012
   71.330     1014
   71.345     1007
   71.360     1024
   71.375     1012
   71.390     1001
   71.405     1056
   71.420     1057
   71.435     1050
   71.450     1061
   71.465     1034
   71.480     1029
   71.495     1062
   71.510     1051
   71.525     1080
   71.540     1093
   71.555     1081
   71.570     1108
   71.585     1109
   71.600     1080
   71.615     1157
   71.630     1121
   71.645     1028
   71.660     1095
   71.675     1110
   71.690     1074
   71.705     1064
   71.720     1099
   71.735     1090
   71.750     1096
   71.765     1102
   71.780     1099
   71.795     1061
   71.810     1069
   71.825     1143
   71.840     1111
   71.855     1079
   71.870     1133
   71.885     1129
   71.900     1112
   71.915     1159
   71.930     1144
   71.945     1160
   71.960     1127
   71.975     1082
   71.990     1075
   72.005     1150
   72.020     1117
   72.035     1067
   72.050     1061
   72.065     1078
   72.080     1112
   72.095     1033
   72.110     1089
   72.125     1098
   72.140     1050
   72.155     1074
   72.170     1034
   72.185     1057
   72.200     1049
   72.215     1023
   72.230     1031
   72.245     1048
   72.260     1077
   72.275     1063
   72.290      987
   72.305     1004
   72.320      969
   72.335      988
   72.350     1020
   72.365     1014
   72.380     1048
   72.395     1005
   72.410     1022
   72.425     1038
   72.440     1036
   72.455     1060
   72.470     1038
   72.485      960
   72.500     1008
   72.515     1009
   72.530     1029
   72.545     1005
   72.560     1021
   72.575     1002
   72.590      983
   72.605     1022
   72.620     1045
   72.635     1015
   72.650     1022
   72.665     1071
   72.680     1039
   72.695     1052
   72.710     1051
   72.725     1028
   72.740     1048
   72.755     1070
   72.770     1102
   72.785     1080
   72.800     1076
   72.815     1045
   72.830     1092
   72.845     1100
   72.860     1080
   72.875     1091
   72.890     1091
   72.905     1076
   72.920     1088
   72.935     1076
   72.950     1100
   72.965     1102
   72.980     1108
   72.995     1165
   73.010     1100
   73.025     1122
   73.040     1098
   73.055     1070
   73.070     1053
   73.085     1071
   73.100     1075
   73.115     1062
   73.130     1079
   73.145     1069
   73.160     1006
   73.175     1057
   73.190     1066
   73.205     1032
   73.220     1061
   73.235     1056
   73.250     1053
   73.265     1074
   73.280     1053
   73.295     1041
   73.310     1031
   73.325     1032
   73.340      985
   73.355      994
   73.370     1020
   73.385     1042
   73.400     1025
   73.415     1005
   73.430      970
   73.445     1006
   73.460     1011
   73.475     1092
   73.490     1014
   73.505      951
   73.520     1030
   73.535     1026
   73.550     1010
   73.565     1062
   73.580     1028
   73.595     1011
   73.610     1019
   73.625     1012
   73.640      976
   73.655     1034
   73.670     1013
   73.685     1058
   73.700     1040
   73.715     1058
   73.730     1039
   73.745     1057
   73.760     1076
   73.775     1049
   73.790     1019
   73.805     1026
   73.820     1034
   73.835     1018
   73.850     1044
   73.865     1069
   73.880     1001
   73.895     1047
   73.910     1050
   73.925     1070
   73.940     1075
   73.955     1057
   73.970     1071
   73.985     1060
   74.000     1080
   74.015     1088
   74.030     1121
   74.045     1118
   74.060     1093
   74.075     1097
   74.090     1114
   74.105     1135
   74.120     1134
   74.135     1091
   74.150     1119
   74.165     1105
   74.180     1083
   74.195     1094
   74.210     1055
   74.225     1101
   74.240     1106
   74.255     1067
   74.270     1088
   74.285     1141
   74.300     1105
   74.315     1144
   74.330     1099
   74.345     1134
   74.360     1078
   74.375     1070
   74.390     1039
   74.405     1037
   74.420     1048
   74.435     1055
   74.450     1073
   74.465     1051
   74.480     1034
   74.495     1026
   74.510     1094
   74.525     1081
   74.540     1040
   74.555     1033
   74.570     1044
   74.585     1018
   74.600     1080
   74.615     1050
   74.630     1049
   74.645     1065
   74.660     1064
   74.675     1096
   74.690     1058
   74.705     1066
   74.720     1059
   74.735     1016
   74.750     1021
   74.765     1057
   74.780     1071
   74.795     1048
   74.810     1052
   74.825     1069
   74.840     1065
   74.855     1077
   74.870     1124
   74.885     1126
   74.900     1054
   74.915     1035
   74.930     1058
   74.945     1088
   74.960     1120
   74.975     1153
   74.990     1180
   75.005     1179
   75.020     1178
   75.035     1138
   75.050     1152
   75.065     1184
   75.080     1150
   75.095     1164
   75.110     1182
   75.125     1178
   75.140     1226
   75.155     1252
   75.170     1213
   75.185     1247
   75.200     1314
   75.215     1323
   75.230     1344
   75.245     1312
   75.260     1350
   75.275     1379
   75.290     1373
   75.305     1442
   75.320     1430
   75.335     1458
   75.350     1498
   75.365     1472
   75.380     1541
   75.395     1517
   75.410     1581
   75.425     1616
   75.440     1563
   75.455     1593
   75.470     1558
   75.485     1581
   75.500     1602
   75.515     1641
   75.530     1593
   75.545     1568
   75.560     1544
   75.575     1545
   75.590     1548
   75.605     1518
   75.620     1504
   75.635     1524
   75.650     1531
   75.665     1524
   75.680     1457
   75.695     1443
   75.710     1370
   75.725     1442
   75.740     1437
   75.755     1451
   75.770     1397
   75.785     1413
   75.800     1436
   75.815     1398
   75.830     1430
   75.845     1432
   75.860     1444
   75.875     1427
   75.890     1442
   75.905     1415
   75.920     1416
   75.935     1407
   75.950     1402
   75.965     1445
   75.980     1418
   75.995     1398
   76.010     1324
   76.025     1355
   76.040     1406
   76.055     1393
   76.070     1380
   76.085     1404
   76.100     1427
   76.115     1409
   76.130     1393
   76.145     1409
   76.160     1371
   76.175     1392
   76.190     1411
   76.205     1392
   76.220     1367
   76.235     1331
   76.250     1382
   76.265     1327
   76.280     1346
   76.295     1412
   76.310     1372
   76.325     1371
   76.340     1367
   76.355     1387
   76.370     1348
   76.385     1326
   76.400     1333
   76.415     1301
   76.430     1267
   76.445     1269
   76.460     1297
   76.475     1257
   76.490     1262
   76.505     1299
   76.520     1234
   76.535     1201
   76.550     1200
   76.565     1193
   76.580     1206
   76.595     1134
   76.610     1138
   76.625     1191
   76.640     1162
   76.655     1159
   76.670     1151
   76.685     1164
   76.700     1157
   76.715     1108
   76.730     1155
   76.745     1146
   76.760     1103
   76.775     1124
   76.790     1105
   76.805     1078
   76.820     1079
   76.835     1059
   76.850     1085
   76.865     1110
   76.880     1148
   76.895     1096
   76.910     1066
   76.925     1072
   76.940     1073
   76.955     1084
   76.970     1096
   76.985     1090
   77.000     1085
   77.015     1118
   77.030     1080
   77.045     1066
   77.060     1112
   77.075     1115
   77.090     1082
   77.105     1049
   77.120     1083
   77.135     1152
   77.150     1079
   77.165     1091
   77.180     1083
   77.195     1088
   77.210     1118
   77.225     1128
   77.240     1100
   77.255     1119
   77.270     1156
   77.285     1160
   77.300     1136
   77.315     1143
   77.330     1108
   77.345     1169
   77.360     1091
   77.375     1095
   77.390     1112
   77.405     1179
   77.420     1140
   77.435     1174
   77.450     1124
   77.465     1089
   77.480     1103
   77.495     1113
   77.510     1166
   77.525     1136
   77.540     1111
   77.555     1121
   77.570     1137
   77.585     1107
   77.600     1099
   77.615     1078
   77.630     1095
   77.645     1088
   77.660     1121
   77.675     1131
   77.690     1156
   77.705     1099
   77.720     1101
   77.735     1120
   77.750     1111
   77.765     1040
   77.780     1081
   77.795     1081
   77.810     1059
   77.825     1092
   77.840     1081
   77.855     1042
   77.870     1113
   77.885     1062
   77.900     1068
   77.915     1060
   77.930     1071
   77.945     1082
   77.960     1081
   77.975     1131
   77.990     1096
   78.005     1094
   78.020     1068
   78.035     1119
   78.050     1098
   78.065     1114
   78.080     1077
   78.095     1068
   78.110     1083
   78.125     1071
   78.140     1056
   78.155     1062
   78.170     1052
   78.185     1097
   78.200     1064
   78.215     1084
   78.230     1101
   78.245     1068
   78.260     1015
   78.275     1049
   78.290     1017
   78.305     1045
   78.320     1034
   78.335     1032
   78.350     1047
   78.365     1061
   78.380     1055
   78.395     1017
   78.410     1030
   78.425     1031
   78.440     1019
   78.455     1049
   78.470     1033
   78.485     1022
   78.500      988
   78.515     1003
   78.530     1033
   78.545     1022
   78.560     1068
   78.575     1034
   78.590     1014
   78.605     1021
   78.620      999
   78.635     1011
   78.650     1053
   78.665     1028
   78.680     1006
   78.695      983
   78.710      992
   78.725     1024
   78.740     1002
   78.755     1025
   78.770     1012
   78.785     1024
   78.800      987
   78.815     1014
   78.830      994
   78.845      971
   78.860     1045
   78.875     1063
   78.890     1016
   78.905     1061
   78.920     1014
   78.935     1022
   78.950     1028
   78.965      987
   78.980     1023
   78.995     1011
   79.010     1070
   79.025     1060
   79.040     1053
   79.055     1039
   79.070     1042
   79.085     1040
   79.100     1056
   79.115     1017
   79.130      975
   79.145     1049
   79.160     1027
   79.175     1038
   79.190     1066
   79.205     1034
   79.220     1072
   79.235     1049
   79.250     1056
   79.265     1044
   79.280     1001
   79.295     1030
   79.310     1044
   79.325     1059
   79.340      999
   79.355     1027
   79.370     1028
   79.385      987
   79.400     1047
   79.415      977
   79.430      974
   79.445      966
   79.460      951
   79.475      991
   79.490     1003
   79.505     1001
   79.520      975
   79.535      943
   79.550      971
   79.565      946
   79.580      949
   79.595      941
   79.610      964
   79.625      977
   79.640      959
   79.655      964
   79.670      960
   79.685      934
   79.700      954
   79.715      963
   79.730      904
   79.745      918
   79.760      928
   79.775      945
   79.790      986
   79.805      972
   79.820      932
   79.835      941
   79.850      967
   79.865      962
   79.880      971
   79.895      966
   79.910      925
   79.925      923
   79.940      932
   79.955      910
   79.970      933
   79.985      913
   80.000      914
   80.015      941
   80.030      959
   80.045      920
   80.060      973
   80.075      952
   80.090      950
   80.105      946
   80.120      972
   80.135      968
   80.150      964
   80.165      927
   80.180      909
   80.195      924
   80.210      981
   80.225      940
   80.240      938
   80.255      996
   80.270     1010
   80.285      988
   80.300      987
   80.315      940
   80.330      944
   80.345      931
   80.360      979
   80.375      976
   80.390      962
   80.405     1006
   80.420      973
   80.435      949
   80.450      966
   80.465     1001
   80.480      927
   80.495      948
   80.510      991
   80.525     1034
   80.540      980
   80.555     1048
   80.570      969
   80.585     1050
   80.600     1061
   80.615     1003
   80.630     1047
   80.645      989
   80.660      985
   80.675     1000
