   20.000     5681
   20.015     5860
   20.030     5723
   20.045     5716
   20.060     5597
   20.075     5655
   20.090     5695
   20.105     5769
   20.120     5742
   20.135     5712
   20.150     5592
   20.165     5658
   20.180     5645
   20.195     5541
   20.210     5559
   20.225     5550
   20.240     5600
   20.255     5661
   20.270     5522
   20.285     5655
   20.300     5596
   20.315     5568
   20.330     5662
   20.345     5584
   20.360     5536
   20.375     5642
   20.390     5630
   20.405     5657
   20.420     5617
   20.435     5537
   20.450     5583
   20.465     5456
   20.480     5483
   20.495     5641
   20.510     5430
   20.525     5410
   20.540     5451
   20.555     5492
   20.570     5502
   20.585     5565
   20.600     5706
   20.615     5624
   20.630     5527
   20.645     5400
   20.660     5430
   20.675     5380
   20.690     5458
   20.705     5574
   20.720     5593
   20.735     5479
   20.750     5452
   20.765     5425
   20.780     5432
   20.795     5418
   20.810     5480
   20.825     5494
   20.840     5382
   20.855     5407
   20.870     5236
   20.885     5346
   20.900     5329
   20.915     5332
   20.930     5391
   20.945     5316
   20.960     5405
   20.975     5266
   20.990     5360
   21.005     5445
   21.020     5408
   21.035     5375
   21.050     5423
   21.065     5358
   21.080     5358
   21.095     5384
   21.110     5364
   21.125     5393
   21.140     5404
   21.155     5346
   21.170     5305
   21.185     5446
   21.200     5390
   21.215     5291
   21.230     5399
   21.245     5300
   21.260     5289
   21.275     5319
   21.290     5286
   21.305     5368
   21.320     5383
   21.335     5294
   21.350     5308
   21.365     5298
   21.380     5231
   21.395     5269
   21.410     5328
   21.425     5239
   21.440     5355
   21.455     5437
   21.470     5325
   21.485     5250
   21.500     5161
   21.515     5224
   21.530     5306
   21.545     5340
   21.560     5230
   21.575     5210
   21.590     5119
   21.605     5317
   21.620     5238
   21.635     5296
   21.650     5289
   21.665     5251
   21.680     5107
   21.695     5175
   21.710     5267
   21.725     5267
   21.740     5142
   21.755     5310
   21.770     5200
   21.785     5093
   21.800     5158
   21.815     5266
   21.830     5226
   21.845     5204
   21.860     5150
   21.875     5135
   21.890     5143
   21.905     5100
   21.920     5010
   21.935     5148
   21.950     5111
   21.965     5125
   21.980     5097
   21.995     5063
   22.010     5132
   22.025     5141
   22.040     5069
   22.055     5087
   22.070     5156
   22.085     5174
   22.100     5152
   22.115     5137
   22.130     5040
   22.145     5065
   22.160     4975
   22.175     4933
   22.190     5022
   22.205     5148
   22.220     5039
   22.235     4885
   22.250     4913
   22.265     5009
   22.280     5026
   22.295     5040
   22.310     4997
   22.325     4943
   22.340     4988
   22.355     5020
   22.370     4963
   22.385     5021
   22.400     4922
   22.415     4989
   22.430     4882
   22.445     4910
   22.460     4914
   22.475     4897
   22.490     4916
   22.505     4890
   22.520     4894
   22.535     4997
   22.550     4877
   22.565     4870
   22.580     4861
   22.595     4984
   22.610     4800
   22.625     4817
   22.640     4927
   22.655     4926
   22.670     4893
   22.685     4784
   22.700     4927
   22.715     4914
   22.730     4891
   22.745     4815
   22.760     4923
   22.775     4932
   22.790     4774
   22.805     4854
   22.820     4749
   22.835     4728
   22.850     4761
   22.865     4773
   22.880     4812
   22.895     4811
   22.910     4813
   22.925     4822
   22.940     4844
   22.955     4808
   22.970     4757
   22.985     4890
   23.000     4762
   23.015     4751
   23.030     4750
   23.045     4813
   23.060     4745
   23.075     4626
   23.090     4742
   23.105     4813
   23.120     4750
   23.135     4718
   23.150     4745
   23.165     4715
   23.180     4793
   23.195     4728
   23.210     4748
   23.225     4838
   23.240     4757
   23.255     4702
   23.270     4726
   23.285     4689
   23.300     4678
   23.315     4749
   23.330     4720
   23.345     4790
   23.360     4710
   23.375     4693
   23.390     4709
   23.405     4621
   23.420     4772
   23.435     4845
   23.450     4840
   23.465     4695
   23.480     4803
   23.495     4864
   23.510     4888
   23.525     4840
   23.540     4846
   23.555     4819
   23.570     4892
   23.585     4922
   23.600     4954
   23.615     4866
   23.630     4875
   23.645     4953
   23.660     4922
   23.675     4895
   23.690     4951
   23.705     4888
   23.720     4907
   23.735     4846
   23.750     4813
   23.765     4821
   23.780     4861
   23.795     4857
   23.810     4729
   23.825     4805
   23.840     4859
   23.855     4665
   23.870     4734
   23.885     4813
   23.900     4713
   23.915     4691
   23.930     4587
   23.945     4700
   23.960     4759
   23.975     4700
   23.990     4647
   24.005     4599
   24.020     4511
   24.035     4532
   24.050     4494
   24.065     4624
   24.080     4549
   24.095     4572
   24.110     4522
   24.125     4447
   24.140     4468
   24.155     4496
   24.170     4489
   24.185     4439
   24.200     4394
   24.215     4390
   24.230     4360
   24.245     4438
   24.260     4447
   24.275     4506
   24.290     4438
   24.305     4269
   24.320     4322
   24.335     4417
   24.350     4420
   24.365     4311
   24.380     4337
   24.395     4399
   24.410     4419
   24.425     4425
   24.440     4302
   24.455     4370
   24.470     4442
   24.485     4344
   24.500     4365
   24.515     4412
   24.530     4317
   24.545     4343
   24.560     4352
   24.575     4328
   24.590     4315
   24.605     4241
   24.620     4359
   24.635     4368
   24.650     4359
   24.665     4290
   24.680     4289
   24.695     4340
   24.710     4321
   24.725     4188
   24.740     4254
   24.755     4216
   24.770     4285
   24.785     4268
   24.800     4375
   24.815     4294
   24.830     4251
   24.845     4237
   24.860     4207
   24.875     4289
   24.890     4307
   24.905     4322
   24.920     4281
   24.935     4296
   24.950     4253
   24.965     4189
   24.980     4236
   24.995     4223
   25.010     4172
   25.025     4158
   25.040     4295
   25.055     4273
   25.070     4205
   25.085     4232
   25.100     4208
   25.115     4161
   25.130     4159
   25.145     4155
   25.160     4123
   25.175     4273
   25.190     4323
   25.205     4187
   25.220     4158
   25.235     4204
   25.250     4175
   25.265     4139
   25.280     4114
   25.295     4243
   25.310     4288
   25.325     4334
   25.340     4152
   25.355     4158
   25.370     4185
   25.385     4156
   25.400     4166
   25.415     4211
   25.430     4210
   25.445     4126
   25.460     4117
   25.475     4080
   25.490     4151
   25.505     4236
   25.520     4061
   25.535     4168
   25.550     4132
   25.565     4231
   25.580     4150
   25.595     4077
   25.610     4061
   25.625     4085
   25.640     4226
   25.655     4113
   25.670     4019
   25.685     4095
   25.700     4093
   25.715     4193
   25.730     4096
   25.745     4156
   25.760     4150
   25.775     4038
   25.790     4062
   25.805     4166
   25.820     4143
   25.835     4002
   25.850     4106
   25.865     4196
   25.880     4057
   25.895     3999
   25.910     4083
   25.925     4136
   25.940     4123
   25.955     4160
   25.970     4061
   25.985     3971
   26.000     4013
   26.015     3963
   26.030     3955
   26.045     4022
   26.060     4122
   26.075     3902
   26.090     4032
   26.105     4152
   26.120     4051
   26.135     3999
   26.150     3994
   26.165     4060
   26.180     3924
   26.195     4090
   26.210     3964
   26.225     4032
   26.240     4014
   26.255     3996
   26.270     3992
   26.285     3985
   26.300     3865
   26.315     3974
   26.330     3919
   26.345     3986
   26.360     3915
   26.375     3936
   26.390     3962
   26.405     3921
   26.420     3903
   26.435     3857
   26.450     3862
   26.465     3819
   26.480     3867
   26.495     3935
   26.510     3974
   26.525     3964
   26.540     3870
   26.555     3924
   26.570     3905
   26.585     3938
   26.600     3976
   26.615     3912
   26.630     3898
   26.645     3872
   26.660     3810
   26.675     3839
   26.690     3890
   26.705     3884
   26.720     3898
   26.735     3894
   26.750     3778
   26.765     3721
   26.780     3800
   26.795     3874
   26.810     3866
   26.825     3761
   26.840     3706
   26.855     3763
   26.870     3780
   26.885     3733
   26.900     3760
   26.915     3801
   26.930     3784
   26.945     3762
   26.960     3814
   26.975     3713
   26.990     3658
   27.005     3716
   27.020     3746
   27.035     3686
   27.050     3733
   27.065     3778
   27.080     3797
   27.095     3785
   27.110     3720
   27.125     3768
   27.140     3672
   27.155     3676
   27.170     3762
   27.185     3748
   27.200     3741
   27.215     3836
   27.230     3732
   27.245     3711
   27.260     3653
   27.275     3535
   27.290     3661
   27.305     3682
   27.320     3642
   27.335     3671
   27.350     3564
   27.365     3656
   27.380     3622
   27.395     3673
   27.410     3664
   27.425     3763
   27.440     3616
   27.455     3683
   27.470     3716
   27.485     3658
   27.500     3633
   27.515     3553
   27.530     3590
   27.545     3590
   27.560     3582
   27.575     3616
   27.590     3642
   27.605     3517
   27.620     3520
   27.635     3640
   27.650     3572
   27.665     3549
   27.680     3529
   27.695     3487
   27.710     3500
   27.725     3525
   27.740     3542
   27.755     3507
   27.770     3505
   27.785     3520
   27.800     3527
   27.815     3572
   27.830     3520
   27.845     3481
   27.860     3479
   27.875     3412
   27.890     3489
   27.905     3455
   27.920     3544
   27.935     3503
   27.950     3514
   27.965     3542
   27.980     3529
   27.995     3509
   28.010     3477
   28.025     3516
   28.040     3470
   28.055     3422
   28.070     3522
   28.085     3480
   28.100     3459
   28.115     3434
   28.130     3527
   28.145     3419
   28.160     3451
   28.175     3498
   28.190     3419
   28.205     3446
   28.220     3496
   28.235     3524
   28.250     3463
   28.265     3397
   28.280     3452
   28.295     3556
   28.310     3418
   28.325     3493
   28.340     3456
   28.355     3420
   28.370     3551
   28.385     3557
   28.400     3529
   28.415     3462
   28.430     3466
   28.445     3501
   28.460     3469
   28.475     3603
   28.490     3658
   28.505     3576
   28.520     3504
   28.535     3575
   28.550     3573
   28.565     3591
   28.580     3650
   28.595     3553
   28.610     3585
   28.625     3603
   28.640     3681
   28.655     3738
   28.670     3701
   28.685     3723
   28.700     3772
   28.715     3682
   28.730     3706
   28.745     3777
   28.760     3737
   28.775     3806
   28.790     3751
   28.805     3825
   28.820     3740
   28.835     3681
   28.850     3619
   28.865     3649
   28.880     3735
   28.895     3743
   28.910     3678
   28.925     3577
   28.940     3592
   28.955     3596
   28.970     3587
   28.985     3476
   29.000     3592
   29.015     3563
   29.030     3507
   29.045     3506
   29.060     3500
   29.075     3537
   29.090     3534
   29.105     3515
   29.120     3510
   29.135     3482
   29.150     3367
   29.165     3432
   29.180     3412
   29.195     3486
   29.210     3386
   29.225     3368
   29.240     3303
   29.255     3269
   29.270     3278
   29.285     3261
   29.300     3272
   29.315     3223
   29.330     3195
   29.345     3185
   29.360     3266
   29.375     3246
   29.390     3281
   29.405     3182
   29.420     3225
   29.435     3207
   29.450     3107
   29.465     3084
   29.480     3136
   29.495     3100
   29.510     3103
   29.525     3209
   29.540     3216
   29.555     3106
   29.570     3158
   29.585     3158
   29.600     3152
   29.615     3062
   29.630     3063
   29.645     3117
   29.660     3150
   29.675     3100
   29.690     3071
   29.705     2998
   29.720     3050
   29.735     2974
   29.750     3024
   29.765     3047
   29.780     3012
   29.795     2995
   29.810     3057
   29.825     3017
   29.840     3022
   29.855     2936
   29.870     2986
   29.885     3014
   29.900     2893
   29.915     2936
   29.930     2963
   29.945     3035
   29.960     2992
   29.975     3021
   29.990     3082
   30.005     3049
   30.020     3009
   30.035     2980
   30.050     3002
   30.065     2946
   30.080     3005
   30.095     2912
   30.110     2947
   30.125     2931
   30.140     2942
   30.155     2923
   30.170     2897
   30.185     2878
   30.200     2918
   30.215     2979
   30.230     2884
   30.245     2887
   30.260     2965
   30.275     2973
   30.290     2977
   30.305     2909
   30.320     2953
   30.335     2871
   30.350     2949
   30.365     2932
   30.380     2844
   30.395     2880
   30.410     2831
   30.425     2795
   30.440     2888
   30.455     2826
   30.470     2949
   30.485     2922
   30.500     2852
   30.515     2911
   30.530     2905
   30.545     2817
   30.560     2821
   30.575     2828
   30.590     2895
   30.605     2929
   30.620     2845
   30.635     2857
   30.650     2875
   30.665     2816
   30.680     2877
   30.695     2820
   30.710     2820
   30.725     2864
   30.740     2831
   30.755     2751
   30.770     2729
   30.785     2793
   30.800     2776
   30.815     2855
   30.830     2780
   30.845     2810
   30.860     2820
   30.875     2822
   30.890     2808
   30.905     2800
   30.920     2772
   30.935     2720
   30.950     2759
   30.965     2801
   30.980     2695
   30.995     2745
   31.010     2726
   31.025     2721
   31.040     2709
   31.055     2758
   31.070     2735
   31.085     2729
   31.100     2791
   31.115     2741
   31.130     2699
   31.145     2758
   31.160     2726
   31.175     2711
   31.190     2804
   31.205     2743
   31.220     2717
   31.235     2631
   31.250     2753
   31.265     2695
   31.280     2713
   31.295     2731
   31.310     2675
   31.325     2627
   31.340     2624
   31.355     2663
   31.370     2668
   31.385     2671
   31.400     2732
   31.415     2603
   31.430     2660
   31.445     2680
   31.460     2646
   31.475     2683
   31.490     2660
   31.505     2686
   31.520     2665
   31.535     2656
   31.550     2624
   31.565     2686
   31.580     2707
   31.595     2657
   31.610     2568
   31.625     2587
   31.640     2655
   31.655     2601
   31.670     2657
   31.685     2646
   31.700     2639
   31.715     2630
   31.730     2663
   31.745     2611
   31.760     2722
   31.775     2676
   31.790     2742
   31.805     2682
   31.820     2604
   31.835     2670
   31.850     2575
   31.865     2611
   31.880     2670
   31.895     2757
   31.910     2623
   31.925     2655
   31.940     2663
   31.955     2628
   31.970     2588
   31.985     2640
   32.000     2584
   32.015     2632
   32.030     2545
   32.045     2608
   32.060     2592
   32.075     2612
   32.090     2603
   32.105     2575
   32.120     2595
   32.135     2620
   32.150     2597
   32.165     2642
   32.180     2591
   32.195     2609
   32.210     2523
   32.225     2617
   32.240     2537
   32.255     2510
   32.270     2612
   32.285     2537
   32.300     2563
   32.315     2596
   32.330     2513
   32.345     2489
   32.360     2478
   32.375     2553
   32.390     2691
   32.405     2573
   32.420     2544
   32.435     2567
   32.450     2583
   32.465     2568
   32.480     2554
   32.495     2499
   32.510     2474
   32.525     2518
   32.540     2593
   32.555     2550
   32.570     2547
   32.585     2513
   32.600     2515
   32.615     2650
   32.630     2493
   32.645     2533
   32.660     2543
   32.675     2623
   32.690     2566
   32.705     2636
   32.720     2505
   32.735     2540
   32.750     2512
   32.765     2564
   32.780     2539
   32.795     2531
   32.810     2476
   32.825     2479
   32.840     2458
   32.855     2500
   32.870     2440
   32.885     2504
   32.900     2464
   32.915     2502
   32.930     2493
   32.945     2488
   32.960     2589
   32.975     2548
   32.990     2573
   33.005     2544
   33.020     2537
   33.035     2413
   33.050     2434
   33.065     2522
   33.080     2456
   33.095     2482
   33.110     2459
   33.125     2425
   33.140     2544
   33.155     2436
   33.170     2463
   33.185     2411
   33.200     2410
   33.215     2451
   33.230     2408
   33.245     2479
   33.260     2445
   33.275     2506
   33.290     2437
   33.305     2483
   33.320     2454
   33.335     2446
   33.350     2421
   33.365     2354
   33.380     2403
   33.395     2393
   33.410     2432
   33.425     2404
   33.440     2380
   33.455     2422
   33.470     2471
   33.485     2458
   33.500     2462
   33.515     2384
   33.530     2384
   33.545     2414
   33.560     2365
   33.575     2393
   33.590     2450
   33.605     2379
   33.620     2454
   33.635     2353
   33.650     2391
   33.665     2400
   33.680     2351
   33.695     2416
   33.710     2445
   33.725     2393
   33.740     2351
   33.755     2428
   33.770     2382
   33.785     2464
   33.800     2361
   33.815     2381
   33.830     2419
   33.845     2425
   33.860     2411
   33.875     2430
   33.890     2358
   33.905     2394
   33.920     2493
   33.935     2512
   33.950     2437
   33.965     2463
   33.980     2527
   33.995     2478
   34.010     2472
   34.025     2477
   34.040     2550
   34.055     2510
   34.070     2556
   34.085     2521
   34.100     2533
   34.115     2478
   34.130     2516
   34.145     2556
   34.160     2480
   34.175     2476
   34.190     2486
   34.205     2427
   34.220     2427
   34.235     2433
   34.250     2395
   34.265     2462
   34.280     2393
   34.295     2335
   34.310     2292
   34.325     2299
   34.340     2333
   34.355     2345
   34.370     2311
   34.385     2373
   34.400     2344
   34.415     2293
   34.430     2281
   34.445     2269
   34.460     2372
   34.475     2256
   34.490     2265
   34.505     2408
   34.520     2312
   34.535     2280
   34.550     2332
   34.565     2315
   34.580     2290
   34.595     2374
   34.610     2285
   34.625     2369
   34.640     2377
   34.655     2266
   34.670     2373
   34.685     2371
   34.700     2359
   34.715     2362
   34.730     2329
   34.745     2361
   34.760     2432
   34.775     2418
   34.790     2414
   34.805     2394
   34.820     2478
   34.835     2530
   34.850     2540
   34.865     2576
   34.880     2552
   34.895     2611
   34.910     2697
   34.925     2856
   34.940     2841
   34.955     2864
   34.970     2894
   34.985     3025
   35.000     3043
   35.015     3115
   35.030     3114
   35.045     3181
   35.060     3230
   35.075     3241
   35.090     3298
   35.105     3272
   35.120     3218
   35.135     3280
   35.150     3221
   35.165     3179
   35.180     3172
   35.195     3117
   35.210     3009
   35.225     2917
   35.240     2892
   35.255     2903
   35.270     2890
   35.285     2783
   35.300     2764
   35.315     2751
   35.330     2707
   35.345     2654
   35.360     2636
   35.375     2663
   35.390     2633
   35.405     2540
   35.420     2542
   35.435     2560
   35.450     2492
   35.465     2447
   35.480     2514
   35.495     2435
   35.510     2410
   35.525     2400
   35.540     2434
   35.555     2403
   35.570     2382
   35.585     2410
   35.600     2426
   35.615     2443
   35.630     2398
   35.645     2392
   35.660     2350
   35.675     2367
   35.690     2315
   35.705     2333
   35.720     2370
   35.735     2346
   35.750     2274
   35.765     2300
   35.780     2391
   35.795     2346
   35.810     2239
   35.825     2368
   35.840     2340
   35.855     2327
   35.870     2266
   35.885     2316
   35.900     2313
   35.915     2327
   35.930     2314
   35.945     2296
   35.960     2364
   35.975     2318
   35.990     2184
   36.005     2310
   36.020     2299
   36.035     2328
   36.050     2334
   36.065     2348
   36.080     2382
   36.095     2385
   36.110     2293
   36.125     2279
   36.140     2337
   36.155     2277
   36.170     2377
   36.185     2313
   36.200     2337
   36.215     2387
   36.230     2302
   36.245     2372
   36.260     2377
   36.275     2303
   36.290     2271
   36.305     2264
   36.320     2268
   36.335     2304
   36.350     2313
   36.365     2268
   36.380     2267
   36.395     2245
   36.410     2281
   36.425     2311
   36.440     2250
   36.455     2223
   36.470     2214
   36.485     2237
   36.500     2174
   36.515     2166
   36.530     2198
   36.545     2270
   36.560     2224
   36.575     2169
   36.590     2196
   36.605     2241
   36.620     2234
   36.635     2280
   36.650     2220
   36.665     2207
   36.680     2205
   36.695     2203
   36.710     2183
   36.725     2183
   36.740     2162
   36.755     2179
   36.770     2192
   36.785     2160
   36.800     2170
   36.815     2078
   36.830     2177
   36.845     2209
   36.860     2150
   36.875     2153
   36.890     2098
   36.905     2136
   36.920     2170
   36.935     2168
   36.950     2204
   36.965     2146
   36.980     2136
   36.995     2206
   37.010     2131
   37.025     2160
   37.040     2201
   37.055     2090
   37.070     2169
   37.085     2181
   37.100     2210
   37.115     2176
   37.130     2250
   37.145     2213
   37.160     2209
   37.175     2232
   37.190     2246
   37.205     2251
   37.220     2243
   37.235     2251
   37.250     2243
   37.265     2300
   37.280     2393
   37.295     2391
   37.310     2306
   37.325     2354
   37.340     2384
   37.355     2309
   37.370     2415
   37.385     2459
   37.400     2546
   37.415     2524
   37.430     2561
   37.445     2504
   37.460     2536
   37.475     2655
   37.490     2751
   37.505     2848
   37.520     2932
   37.535     2906
   37.550     2984
   37.565     3054
   37.580     3145
   37.595     3183
   37.610     3325
   37.625     3257
   37.640     3351
   37.655     3468
   37.670     3536
   37.685     3408
   37.700     3452
   37.715     3559
   37.730     3604
   37.745     3532
   37.760     3557
   37.775     3435
   37.790     3294
   37.805     3259
   37.820     3212
   37.835     3136
   37.850     3045
   37.865     3037
   37.880     2949
   37.895     2766
   37.910     2757
   37.925     2736
   37.940     2616
   37.955     2601
   37.970     2551
   37.985     2384
   38.000     2348
   38.015     2335
   38.030     2367
   38.045     2357
   38.060     2351
   38.075     2294
   38.090     2257
   38.105     2248
   38.120     2310
   38.135     2220
   38.150     2152
   38.165     2206
   38.180     2149
   38.195     2114
   38.210     2137
   38.225     2127
   38.240     2182
   38.255     2207
   38.270     2129
   38.285     2125
   38.300     2083
   38.315     2040
   38.330     2090
   38.345     2137
   38.360     2076
   38.375     2051
   38.390     2073
   38.405     2075
   38.420     2061
   38.435     2054
   38.450     2106
   38.465     2075
   38.480     2132
   38.495     2032
   38.510     2059
   38.525     2087
   38.540     2097
   38.555     2110
   38.570     2101
   38.585     2119
   38.600     2010
   38.615     2038
   38.630     2056
   38.645     2017
   38.660     2073
   38.675     2059
   38.690     2063
   38.705     2075
   38.720     2042
   38.735     2121
   38.750     2088
   38.765     2083
   38.780     2057
   38.795     2045
   38.810     1992
   38.825     2040
   38.840     2075
   38.855     2083
   38.870     2000
   38.885     2098
   38.900     2031
   38.915     2014
   38.930     2008
   38.945     2045
   38.960     2014
   38.975     2019
   38.990     2055
   39.005     2115
   39.020     2126
   39.035     2037
   39.050     2064
   39.065     2121
   39.080     2080
   39.095     2179
   39.110     2142
   39.125     2098
   39.140     2084
   39.155     2064
   39.170     2053
   39.185     2141
   39.200     2138
   39.215     2094
   39.230     2148
   39.245     2111
   39.260     2111
   39.275     2143
   39.290     2096
   39.305     2076
   39.320     2059
   39.335     2095
   39.350     2108
   39.365     2116
   39.380     2145
   39.395     2206
   39.410     2172
   39.425     2150
   39.440     2246
   39.455     2282
   39.470     2248
   39.485     2247
   39.500     2255
   39.515     2259
   39.530     2327
   39.545     2299
   39.560     2338
   39.575     2478
   39.590     2450
   39.605     2549
   39.620     2556
   39.635     2528
   39.650     2567
   39.665     2654
   39.680     2841
   39.695     2963
   39.710     3095
   39.725     3121
   39.740     3248
   39.755     3333
   39.770     3545
   39.785     3686
   39.800     3906
   39.815     4134
   39.830     4394
   39.845     4675
   39.860     4922
   39.875     5136
   39.890     5310
   39.905     5586
   39.920     5909
   39.935     6094
   39.950     6381
   39.965     6550
   39.980     6515
   39.995     6617
   40.010     6699
   40.025     6848
   40.040     6895
   40.055     6756
   40.070     6631
   40.085     6354
   40.100     6342
   40.115     6174
   40.130     6081
   40.145     5886
   40.160     5748
   40.175     5456
   40.190     5301
   40.205     5185
   40.220     4955
   40.235     4823
   40.250     4547
   40.265     4474
   40.280     4397
   40.295     4227
   40.310     4265
   40.325     4097
   40.340     4013
   40.355     3882
   40.370     3851
   40.385     3790
   40.400     3697
   40.415     3691
   40.430     3703
   40.445     3572
   40.460     3500
   40.475     3432
   40.490     3463
   40.505     3396
   40.520     3335
   40.535     3346
   40.550     3327
   40.565     3330
   40.580     3163
   40.595     3131
   40.610     3107
   40.625     3043
   40.640     3000
   40.655     2933
   40.670     2870
   40.685     2814
   40.700     2723
   40.715     2653
   40.730     2569
   40.745     2655
   40.760     2644
   40.775     2534
   40.790     2380
   40.805     2421
   40.820     2417
   40.835     2326
   40.850     2314
   40.865     2383
   40.880     2283
   40.895     2267
   40.910     2297
   40.925     2261
   40.940     2215
   40.955     2255
   40.970     2238
   40.985     2124
   41.000     2208
   41.015     2140
   41.030     2088
   41.045     2117
   41.060     2045
   41.075     2079
   41.090     2066
   41.105     2164
   41.120     2029
   41.135     2016
   41.150     2072
   41.165     2097
   41.180     2112
   41.195     2133
   41.210     2130
   41.225     2028
   41.240     2018
   41.255     2028
   41.270     1976
   41.285     2039
   41.300     1992
   41.315     1986
   41.330     2064
   41.345     2016
   41.360     2007
   41.375     2004
   41.390     2163
   41.405     2076
   41.420     2014
   41.435     2067
   41.450     2070
   41.465     2079
   41.480     2034
   41.495     2082
   41.510     2198
   41.525     2186
   41.540     2136
   41.555     2212
   41.570     2153
   41.585     2187
   41.600     2172
   41.615     2172
   41.630     2180
   41.645     2247
   41.660     2244
   41.675     2229
   41.690     2255
   41.705     2240
   41.720     2300
   41.735     2278
   41.750     2251
   41.765     2316
   41.780     2141
   41.795     2253
   41.810     2250
   41.825     2238
   41.840     2150
   41.855     2096
   41.870     2116
   41.885     2139
   41.900     2026
   41.915     2050
   41.930     2032
   41.945     2045
   41.960     2008
   41.975     1972
   41.990     1966
   42.005     1959
   42.020     1909
   42.035     1950
   42.050     1874
   42.065     1865
   42.080     1856
   42.095     1839
   42.110     1760
   42.125     1807
   42.140     1867
   42.155     1860
   42.170     1860
   42.185     1764
   42.200     1769
   42.215     1775
   42.230     1743
   42.245     1760
   42.260     1853
   42.275     1808
   42.290     1756
   42.305     1706
   42.320     1700
   42.335     1747
   42.350     1750
   42.365     1689
   42.380     1698
   42.395     1678
   42.410     1689
   42.425     1660
   42.440     1647
   42.455     1621
   42.470     1676
   42.485     1693
   42.500     1678
   42.515     1674
   42.530     1691
   42.545     1713
   42.560     1711
   42.575     1710
   42.590     1676
   42.605     1670
   42.620     1661
   42.635     1672
   42.650     1675
   42.665     1707
   42.680     1673
   42.695     1614
   42.710     1667
   42.725     1758
   42.740     1644
   42.755     1725
   42.770     1587
   42.785     1618
   42.800     1628
   42.815     1623
   42.830     1691
   42.845     1626
   42.860     1712
   42.875     1717
   42.890     1673
   42.905     1643
   42.920     1656
   42.935     1716
   42.950     1647
   42.965     1657
   42.980     1675
   42.995     1731
   43.010     1714
   43.025     1667
   43.040     1622
   43.055     1678
   43.070     1663
   43.085     1663
   43.100     1646
   43.115     1628
   43.130     1651
   43.145     1672
   43.160     1650
   43.175     1662
   43.190     1584
   43.205     1653
   43.220     1704
   43.235     1645
   43.250     1650
   43.265     1699
   43.280     1680
   43.295     1670
   43.310     1661
   43.325     1631
   43.340     1712
   43.355     1679
   43.370     1619
   43.385     1648
   43.400     1759
   43.415     1672
   43.430     1626
   43.445     1605
   43.460     1657
   43.475     1640
   43.490     1681
   43.505     1693
   43.520     1597
   43.535     1672
   43.550     1702
   43.565     1687
   43.580     1657
   43.595     1712
   43.610     1723
   43.625     1685
   43.640     1675
   43.655     1711
   43.670     1672
   43.685     1638
   43.700     1703
   43.715     1720
   43.730     1680
   43.745     1716
   43.760     1706
   43.775     1738
   43.790     1707
   43.805     1705
   43.820     1710
   43.835     1740
   43.850     1760
   43.865     1755
   43.880     1673
   43.895     1674
   43.910     1745
   43.925     1677
   43.940     1704
   43.955     1664
   43.970     1709
   43.985     1696
   44.000     1727
   44.015     1819
   44.030     1740
   44.045     1700
   44.060     1703
   44.075     1779
   44.090     1788
   44.105     1722
   44.120     1684
   44.135     1737
   44.150     1761
   44.165     1753
   44.180     1722
   44.195     1720
   44.210     1695
   44.225     1736
   44.240     1772
   44.255     1700
   44.270     1694
   44.285     1728
   44.300     1719
   44.315     1718
   44.330     1662
   44.345     1657
   44.360     1692
   44.375     1721
   44.390     1649
   44.405     1718
   44.420     1713
   44.435     1721
   44.450     1700
   44.465     1686
   44.480     1745
   44.495     1705
   44.510     1635
   44.525     1610
   44.540     1730
   44.555     1686
   44.570     1651
   44.585     1613
   44.600     1635
   44.615     1641
   44.630     1605
   44.645     1634
   44.660     1654
   44.675     1655
   44.690     1597
   44.705     1620
   44.720     1584
   44.735     1637
   44.750     1613
   44.765     1630
   44.780     1591
   44.795     1531
   44.810     1579
   44.825     1647
   44.840     1595
   44.855     1569
   44.870     1583
   44.885     1584
   44.900     1570
   44.915     1572
   44.930     1567
   44.945     1596
   44.960     1580
   44.975     1607
   44.990     1585
   45.005     1585
   45.020     1556
   45.035     1568
   45.050     1612
   45.065     1665
   45.080     1526
   45.095     1535
   45.110     1550
   45.125     1572
   45.140     1592
   45.155     1543
   45.170     1590
   45.185     1564
   45.200     1590
   45.215     1596
   45.230     1537
   45.245     1513
   45.260     1582
   45.275     1593
   45.290     1594
   45.305     1552
   45.320     1601
   45.335     1584
   45.350     1530
   45.365     1594
   45.380     1598
   45.395     1595
   45.410     1554
   45.425     1589
   45.440     1613
   45.455     1526
   45.470     1574
   45.485     1574
   45.500     1573
   45.515     1691
   45.530     1619
   45.545     1612
   45.560     1667
   45.575     1631
   45.590     1662
   45.605     1707
   45.620     1662
   45.635     1637
   45.650     1655
   45.665     1637
   45.680     1681
   45.695     1702
   45.710     1685
   45.725     1678
   45.740     1700
   45.755     1672
   45.770     1718
   45.785     1612
   45.800     1652
   45.815     1651
   45.830     1625
   45.845     1617
   45.860     1594
   45.875     1599
   45.890     1634
   45.905     1634
   45.920     1542
   45.935     1544
   45.950     1597
   45.965     1524
   45.980     1582
   45.995     1532
   46.010     1529
   46.025     1545
   46.040     1551
   46.055     1540
   46.070     1533
   46.085     1585
   46.100     1575
   46.115     1551
   46.130     1526
   46.145     1517
   46.160     1461
   46.175     1508
   46.190     1514
   46.205     1440
   46.220     1474
   46.235     1533
   46.250     1528
   46.265     1523
   46.280     1521
   46.295     1471
   46.310     1503
   46.325     1546
   46.340     1538
   46.355     1529
   46.370     1509
   46.385     1432
   46.400     1452
   46.415     1554
   46.430     1483
   46.445     1470
   46.460     1455
   46.475     1503
   46.490     1471
   46.505     1510
   46.520     1478
   46.535     1492
   46.550     1439
   46.565     1394
   46.580     1420
   46.595     1456
   46.610     1462
   46.625     1449
   46.640     1450
   46.655     1425
   46.670     1479
   46.685     1506
   46.700     1463
   46.715     1464
   46.730     1439
   46.745     1479
   46.760     1430
   46.775     1422
   46.790     1429
   46.805     1456
   46.820     1500
   46.835     1460
   46.850     1466
   46.865     1497
   46.880     1406
   46.895     1445
   46.910     1468
   46.925     1458
   46.940     1453
   46.955     1498
   46.970     1429
   46.985     1415
   47.000     1484
   47.015     1439
   47.030     1435
   47.045     1421
   47.060     1461
   47.075     1460
   47.090     1474
   47.105     1471
   47.120     1421
   47.135     1362
   47.150     1380
   47.165     1473
   47.180     1415
   47.195     1442
   47.210     1458
   47.225     1491
   47.240     1537
   47.255     1547
   47.270     1704
   47.285     1935
   47.300     1945
   47.315     1641
   47.330     1463
   47.345     1480
   47.360     1425
   47.375     1427
   47.390     1424
   47.405     1366
   47.420     1425
   47.435     1481
   47.450     1476
   47.465     1456
   47.480     1477
   47.495     1372
   47.510     1388
   47.525     1438
   47.540     1381
   47.555     1389
   47.570     1391
   47.585     1402
   47.600     1422
   47.615     1345
   47.630     1407
   47.645     1403
   47.660     1378
   47.675     1392
   47.690     1444
   47.705     1457
   47.720     1380
   47.735     1407
   47.750     1392
   47.765     1414
   47.780     1388
   47.795     1398
   47.810     1395
   47.825     1396
   47.840     1318
   47.855     1379
   47.870     1349
   47.885     1338
   47.900     1427
   47.915     1391
   47.930     1398
   47.945     1401
   47.960     1385
   47.975     1395
   47.990     1432
   48.005     1399
   48.020     1397
   48.035     1407
   48.050     1376
   48.065     1418
   48.080     1444
   48.095     1379
   48.110     1419
   48.125     1390
   48.140     1334
   48.155     1367
   48.170     1373
   48.185     1419
   48.200     1380
   48.215     1396
   48.230     1411
   48.245     1314
   48.260     1361
   48.275     1400
   48.290     1475
   48.305     1418
   48.320     1417
   48.335     1412
   48.350     1390
   48.365     1347
   48.380     1400
   48.395     1422
   48.410     1454
   48.425     1357
   48.440     1412
   48.455     1358
   48.470     1370
   48.485     1369
   48.500     1444
   48.515     1439
   48.530     1407
   48.545     1413
   48.560     1422
   48.575     1378
   48.590     1410
   48.605     1425
   48.620     1405
   48.635     1440
   48.650     1404
   48.665     1430
   48.680     1431
   48.695     1421
   48.710     1410
   48.725     1423
   48.740     1446
   48.755     1388
   48.770     1394
   48.785     1412
   48.800     1408
   48.815     1343
   48.830     1383
   48.845     1430
   48.860     1372
   48.875     1403
   48.890     1391
   48.905     1332
   48.920     1347
   48.935     1365
   48.950     1388
   48.965     1383
   48.980     1377
   48.995     1353
   49.010     1364
   49.025     1379
   49.040     1394
   49.055     1373
   49.070     1342
   49.085     1392
   49.100     1324
   49.115     1373
   49.130     1335
   49.145     1362
   49.160     1353
   49.175     1365
   49.190     1363
   49.205     1349
   49.220     1372
   49.235     1357
   49.250     1317
   49.265     1325
   49.280     1343
   49.295     1333
   49.310     1310
   49.325     1307
   49.340     1315
   49.355     1329
   49.370     1378
   49.385     1317
   49.400     1330
   49.415     1402
   49.430     1330
   49.445     1334
   49.460     1374
   49.475     1327
   49.490     1333
   49.505     1290
   49.520     1340
   49.535     1355
   49.550     1320
   49.565     1273
   49.580     1339
   49.595     1335
   49.610     1307
   49.625     1260
   49.640     1282
   49.655     1285
   49.670     1326
   49.685     1309
   49.700     1308
   49.715     1380
   49.730     1318
   49.745     1331
   49.760     1317
   49.775     1355
   49.790     1285
   49.805     1252
   49.820     1305
   49.835     1305
   49.850     1304
   49.865     1259
   49.880     1242
   49.895     1272
   49.910     1276
   49.925     1322
   49.940     1342
   49.955     1352
   49.970     1233
   49.985     1258
   50.000     1309
   50.015     1289
   50.030     1287
   50.045     1257
   50.060     1287
   50.075     1297
   50.090     1276
   50.105     1248
   50.120     1223
   50.135     1247
   50.150     1291
   50.165     1304
   50.180     1345
   50.195     1314
   50.210     1283
   50.225     1259
   50.240     1259
   50.255     1250
   50.270     1292
   50.285     1303
   50.300     1332
   50.315     1305
   50.330     1259
   50.345     1253
   50.360     1285
   50.375     1224
   50.390     1303
   50.405     1293
   50.420     1282
   50.435     1288
   50.450     1251
   50.465     1280
   50.480     1264
   50.495     1297
   50.510     1276
   50.525     1325
   50.540     1262
   50.555     1253
   50.570     1264
   50.585     1238
   50.600     1259
   50.615     1262
   50.630     1313
   50.645     1295
   50.660     1321
   50.675     1279
   50.690     1294
   50.705     1265
   50.720     1239
   50.735     1233
   50.750     1259
   50.765     1256
   50.780     1226
   50.795     1275
   50.810     1324
   50.825     1280
   50.840     1288
   50.855     1251
   50.870     1294
   50.885     1292
   50.900     1274
   50.915     1245
   50.930     1293
   50.945     1308
   50.960     1241
   50.975     1268
   50.990     1222
   51.005     1251
   51.020     1253
   51.035     1246
   51.050     1259
   51.065     1282
   51.080     1254
   51.095     1268
   51.110     1316
   51.125     1232
   51.140     1238
   51.155     1260
   51.170     1259
   51.185     1280
   51.200     1254
   51.215     1230
   51.230     1307
   51.245     1318
   51.260     1233
   51.275     1251
   51.290     1255
   51.305     1239
   51.320     1317
   51.335     1277
   51.350     1302
   51.365     1302
   51.380     1301
   51.395     1306
   51.410     1357
   51.425     1284
   51.440     1304
   51.455     1308
   51.470     1291
   51.485     1312
   51.500     1336
   51.515     1392
   51.530     1254
   51.545     1197
   51.560     1267
   51.575     1380
   51.590     1355
   51.605     1329
   51.620     1341
   51.635     1331
   51.650     1293
   51.665     1348
   51.680     1312
   51.695     1286
   51.710     1341
   51.725     1285
   51.740     1328
   51.755     1317
   51.770     1361
   51.785     1367
   51.800     1372
   51.815     1303
   51.830     1368
   51.845     1414
   51.860     1335
   51.875     1338
   51.890     1376
   51.905     1335
   51.920     1373
   51.935     1352
   51.950     1334
   51.965     1298
   51.980     1310
   51.995     1352
   52.010     1369
   52.025     1380
   52.040     1361
   52.055     1377
   52.070     1386
   52.085     1348
   52.100     1309
   52.115     1366
   52.130     1369
   52.145     1388
   52.160     1467
   52.175     1389
   52.190     1467
   52.205     1473
   52.220     1492
   52.235     1449
   52.250     1460
   52.265     1450
   52.280     1530
   52.295     1539
   52.310     1565
   52.325     1576
   52.340     1646
   52.355     1625
   52.370     1652
   52.385     1656
   52.400     1732
   52.415     1790
   52.430     1765
   52.445     1772
   52.460     1767
   52.475     1808
   52.490     1842
   52.505     1805
   52.520     1872
   52.535     1870
   52.550     1835
   52.565     1802
   52.580     1765
   52.595     1759
   52.610     1647
   52.625     1659
   52.640     1693
   52.655     1587
   52.670     1567
   52.685     1554
   52.700     1565
   52.715     1516
   52.730     1476
   52.745     1436
   52.760     1417
   52.775     1419
   52.790     1391
   52.805     1387
   52.820     1346
   52.835     1352
   52.850     1402
   52.865     1400
   52.880     1309
   52.895     1275
   52.910     1320
   52.925     1282
   52.940     1292
   52.955     1260
   52.970     1251
   52.985     1286
   53.000     1328
   53.015     1299
   53.030     1316
   53.045     1301
   53.060     1254
   53.075     1282
   53.090     1249
   53.105     1279
   53.120     1248
   53.135     1232
   53.150     1227
   53.165     1196
   53.180     1294
   53.195     1200
   53.210     1229
   53.225     1226
   53.240     1250
   53.255     1266
   53.270     1222
   53.285     1157
   53.300     1246
   53.315     1259
   53.330     1199
   53.345     1211
   53.360     1175
   53.375     1230
   53.390     1221
   53.405     1249
   53.420     1188
   53.435     1213
   53.450     1219
   53.465     1209
   53.480     1220
   53.495     1217
   53.510     1203
   53.525     1169
   53.540     1190
   53.555     1234
   53.570     1232
   53.585     1198
   53.600     1165
   53.615     1178
   53.630     1178
   53.645     1213
   53.660     1222
   53.675     1201
   53.690     1270
   53.705     1199
   53.720     1204
   53.735     1203
   53.750     1211
   53.765     1188
   53.780     1182
   53.795     1240
   53.810     1187
   53.825     1145
   53.840     1168
   53.855     1176
   53.870     1171
   53.885     1163
   53.900     1204
   53.915     1233
   53.930     1201
   53.945     1183
   53.960     1172
   53.975     1207
   53.990     1163
   54.005     1113
   54.020     1190
   54.035     1232
   54.050     1180
   54.065     1208
   54.080     1144
   54.095     1177
   54.110     1205
   54.125     1203
   54.140     1235
   54.155     1147
   54.170     1191
   54.185     1235
   54.200     1223
   54.215     1195
   54.230     1176
   54.245     1134
   54.260     1188
   54.275     1168
   54.290     1173
   54.305     1186
   54.320     1177
   54.335     1119
   54.350     1176
   54.365     1225
   54.380     1157
   54.395     1201
   54.410     1169
   54.425     1158
   54.440     1166
   54.455     1169
   54.470     1166
   54.485     1125
   54.500     1143
   54.515     1221
   54.530     1263
   54.545     1195
   54.560     1171
   54.575     1152
   54.590     1119
   54.605     1194
   54.620     1156
   54.635     1150
   54.650     1175
   54.665     1167
   54.680     1159
   54.695     1156
   54.710     1129
   54.725     1153
   54.740     1180
   54.755     1174
   54.770     1156
   54.785     1148
   54.800     1136
   54.815     1202
   54.830     1158
   54.845     1089
   54.860     1151
   54.875     1145
   54.890     1210
   54.905     1176
   54.920     1165
   54.935     1172
   54.950     1164
   54.965     1183
   54.980     1207
   54.995     1186
   55.010     1171
   55.025     1124
   55.040     1160
   55.055     1121
   55.070     1169
   55.085     1193
   55.100     1175
   55.115     1144
   55.130     1164
   55.145     1171
   55.160     1156
   55.175     1105
   55.190     1125
   55.205     1182
   55.220     1146
   55.235     1167
   55.250     1161
   55.265     1134
   55.280     1133
   55.295     1183
   55.310     1143
   55.325     1195
   55.340     1168
   55.355     1200
   55.370     1123
   55.385     1180
   55.400     1190
   55.415     1144
   55.430     1162
   55.445     1212
   55.460     1168
   55.475     1184
   55.490     1158
   55.505     1194
   55.520     1194
   55.535     1127
   55.550     1193
   55.565     1191
   55.580     1206
   55.595     1207
   55.610     1144
   55.625     1154
   55.640     1134
   55.655     1198
   55.670     1176
   55.685     1145
   55.700     1159
   55.715     1170
   55.730     1132
   55.745     1152
   55.760     1156
   55.775     1157
   55.790     1179
   55.805     1121
   55.820     1100
   55.835     1134
   55.850     1097
   55.865     1168
   55.880     1175
   55.895     1132
   55.910     1163
   55.925     1098
   55.940     1166
   55.955     1149
   55.970     1142
   55.985     1133
   56.000     1154
   56.015     1132
   56.030     1155
   56.045     1126
   56.060     1121
   56.075     1134
   56.090     1096
   56.105     1109
   56.120     1139
   56.135     1122
   56.150     1147
   56.165     1154
   56.180     1116
   56.195     1119
   56.210     1112
   56.225     1115
   56.240     1100
   56.255     1125
   56.270     1126
   56.285     1177
   56.300     1134
   56.315     1146
   56.330     1110
   56.345     1073
   56.360     1116
   56.375     1097
   56.390     1138
   56.405     1160
   56.420     1135
   56.435     1106
   56.450     1100
   56.465     1132
   56.480     1108
   56.495     1149
   56.510     1120
   56.525     1068
   56.540     1130
   56.555     1129
   56.570     1112
   56.585     1144
   56.600     1125
   56.615     1114
   56.630     1064
   56.645     1077
   56.660     1086
   56.675     1085
   56.690     1126
   56.705     1145
   56.720     1141
   56.735     1100
   56.750     1112
   56.765     1106
   56.780     1087
   56.795     1111
   56.810     1118
   56.825     1085
   56.840     1089
   56.855     1067
   56.870     1132
   56.885     1077
   56.900     1102
   56.915     1156
   56.930     1188
   56.945     1128
   56.960     1158
   56.975     1131
   56.990     1105
   57.005     1111
   57.020     1123
   57.035     1114
   57.050     1070
   57.065     1104
   57.080     1079
   57.095     1099
   57.110     1133
   57.125     1127
   57.140     1125
   57.155     1107
   57.170     1076
   57.185     1057
   57.200     1046
   57.215     1081
   57.230     1083
   57.245     1104
   57.260     1165
   57.275     1125
   57.290     1094
   57.305     1081
   57.320     1119
   57.335     1146
   57.350     1068
   57.365     1080
   57.380     1046
   57.395     1084
   57.410     1040
   57.425     1065
   57.440     1107
   57.455     1079
   57.470     1044
   57.485     1085
   57.500     1046
   57.515     1078
   57.530     1112
   57.545     1077
   57.560     1093
   57.575     1087
   57.590     1070
   57.605     1104
   57.620     1107
   57.635     1120
   57.650     1085
   57.665     1101
   57.680     1137
   57.695     1080
   57.710     1066
   57.725     1066
   57.740     1108
   57.755     1110
   57.770     1091
   57.785     1095
   57.800     1034
   57.815     1015
   57.830     1080
   57.845     1086
   57.860     1138
   57.875     1080
   57.890     1151
   57.905     1117
   57.920     1077
   57.935     1082
   57.950     1053
   57.965     1110
   57.980     1110
   57.995     1114
   58.010     1124
   58.025     1123
   58.040     1066
   58.055     1089
   58.070     1086
   58.085     1114
   58.100     1106
   58.115     1060
   58.130     1095
   58.145     1095
   58.160     1058
   58.175     1060
   58.190     1104
   58.205     1059
   58.220     1067
   58.235     1118
   58.250     1037
   58.265     1077
   58.280     1131
   58.295     1082
   58.310     1172
   58.325     1101
   58.340     1132
   58.355     1107
   58.370     1104
   58.385     1105
   58.400     1070
   58.415     1100
   58.430     1079
   58.445     1079
   58.460     1106
   58.475     1099
   58.490     1096
   58.505     1091
   58.520     1117
   58.535     1116
   58.550     1121
   58.565     1083
   58.580     1067
   58.595     1093
   58.610     1104
   58.625     1082
   58.640     1095
   58.655     1105
   58.670     1075
   58.685     1143
   58.700     1042
   58.715     1069
   58.730     1063
   58.745     1072
   58.760     1077
   58.775     1065
   58.790     1087
   58.805     1089
   58.820     1053
   58.835     1073
   58.850     1104
   58.865     1115
   58.880     1091
   58.895     1100
   58.910     1030
   58.925     1117
   58.940     1142
   58.955     1078
   58.970     1088
   58.985     1103
   59.000     1132
   59.015     1151
   59.030     1159
   59.045     1120
   59.060     1078
   59.075     1116
   59.090     1148
   59.105     1098
   59.120     1107
   59.135     1143
   59.150     1078
   59.165     1101
   59.180     1118
   59.195     1149
   59.210     1131
   59.225     1110
   59.240     1107
   59.255     1117
   59.270     1146
   59.285     1146
   59.300     1176
   59.315     1163
   59.330     1178
   59.345     1234
   59.360     1212
   59.375     1213
   59.390     1200
   59.405     1189
   59.420     1177
   59.435     1193
   59.450     1238
   59.465     1229
   59.480     1269
   59.495     1243
   59.510     1243
   59.525     1308
   59.540     1300
   59.555     1295
   59.570     1245
   59.585     1243
   59.600     1313
   59.615     1272
   59.630     1276
   59.645     1270
   59.660     1264
   59.675     1275
   59.690     1259
   59.705     1276
   59.720     1241
   59.735     1247
   59.750     1260
   59.765     1217
   59.780     1204
   59.795     1233
   59.810     1185
   59.825     1203
   59.840     1214
   59.855     1170
   59.870     1161
   59.885     1182
   59.900     1208
   59.915     1190
   59.930     1169
   59.945     1148
   59.960     1132
   59.975     1158
   59.990     1163
   60.005     1191
   60.020     1138
   60.035     1109
   60.050     1111
   60.065     1089
   60.080     1125
   60.095     1119
   60.110     1065
   60.125     1142
   60.140     1133
   60.155     1122
   60.170     1086
   60.185     1115
   60.200     1106
   60.215     1095
   60.230     1078
   60.245     1148
   60.260     1105
   60.275     1109
   60.290     1087
   60.305     1142
   60.320     1094
   60.335     1069
   60.350     1133
   60.365     1125
   60.380     1111
   60.395     1083
   60.410     1058
   60.425     1114
   60.440     1072
   60.455     1036
   60.470     1071
   60.485     1074
   60.500     1073
   60.515     1117
   60.530     1090
   60.545     1111
   60.560     1108
   60.575     1073
   60.590     1046
   60.605     1108
   60.620     1099
   60.635     1093
   60.650     1050
   60.665     1048
   60.680     1085
   60.695     1078
   60.710     1089
   60.725     1096
   60.740     1045
   60.755     1029
   60.770     1069
   60.785     1059
   60.800     1090
   60.815     1108
   60.830     1056
   60.845     1072
   60.860     1124
   60.875     1099
   60.890     1096
   60.905     1116
   60.920     1101
   60.935     1027
   60.950     1061
   60.965     1070
   60.980     1080
   60.995     1077
   61.010     1116
   61.025     1089
   61.040     1092
   61.055     1099
   61.070     1072
   61.085     1055
   61.100     1066
   61.115     1062
   61.130     1063
   61.145     1066
   61.160     1047
   61.175     1094
   61.190     1062
   61.205     1076
   61.220     1021
   61.235     1087
   61.250     1084
   61.265     1050
   61.280     1040
   61.295     1067
   61.310     1064
   61.325     1064
   61.340     1052
   61.355     1068
   61.370     1139
   61.385     1105
   61.400     1046
   61.415     1030
   61.430     1061
   61.445     1097
   61.460     1038
   61.475     1027
   61.490     1076
   61.505     1067
   61.520     1081
   61.535     1070
   61.550     1049
   61.565     1065
   61.580     1077
   61.595     1077
   61.610     1060
   61.625     1040
   61.640     1055
   61.655     1065
   61.670     1071
   61.685     1056
   61.700     1020
   61.715     1051
   61.730     1122
   61.745     1115
   61.760     1060
   61.775     1051
   61.790     1089
   61.805     1095
   61.820     1110
   61.835     1072
   61.850     1028
   61.865     1017
   61.880     1064
   61.895     1036
   61.910     1032
   61.925     1008
   61.940     1009
   61.955     1055
   61.970     1044
   61.985     1031
   62.000     1034
   62.015     1127
   62.030     1075
   62.045     1106
   62.060     1110
   62.075     1049
   62.090     1051
   62.105     1017
   62.120     1041
   62.135      981
   62.150     1024
   62.165     1067
   62.180     1037
   62.195     1058
   62.210     1088
   62.225     1072
   62.240     1108
   62.255     1112
   62.270     1087
   62.285     1066
   62.300     1048
   62.315     1073
   62.330     1088
   62.345     1064
   62.360     1059
   62.375     1027
   62.390     1080
   62.405     1081
   62.420     1103
   62.435     1066
   62.450     1056
   62.465     1099
   62.480     1102
   62.495     1046
   62.510     1098
   62.525     1069
   62.540     1055
   62.555     1064
   62.570     1110
   62.585     1106
   62.600     1113
   62.615     1146
   62.630     1144
   62.645     1095
   62.660     1147
   62.675     1190
   62.690     1203
   62.705     1186
   62.720     1211
   62.735     1232
   62.750     1267
   62.765     1262
   62.780     1274
   62.795     1290
   62.810     1253
   62.825     1307
   62.840     1346
   62.855     1415
   62.870     1429
   62.885     1414
   62.900     1447
   62.915     1482
   62.930     1470
   62.945     1531
   62.960     1518
   62.975     1515
   62.990     1532
   63.005     1564
   63.020     1544
   63.035     1596
   63.050     1558
   63.065     1567
   63.080     1516
   63.095     1498
   63.110     1535
   63.125     1517
   63.140     1451
   63.155     1482
   63.170     1476
   63.185     1469
   63.200     1404
   63.215     1366
   63.230     1420
   63.245     1377
   63.260     1343
   63.275     1372
   63.290     1344
   63.305     1294
   63.320     1345
   63.335     1325
   63.350     1275
   63.365     1302
   63.380     1285
   63.395     1237
   63.410     1209
   63.425     1240
   63.440     1258
   63.455     1175
   63.470     1212
   63.485     1246
   63.500     1205
   63.515     1236
   63.530     1275
   63.545     1207
   63.560     1217
   63.575     1177
   63.590     1163
   63.605     1182
   63.620     1132
   63.635     1158
   63.650     1139
   63.665     1190
   63.680     1209
   63.695     1175
   63.710     1183
   63.725     1153
   63.740     1124
   63.755     1179
   63.770     1146
   63.785     1211
   63.800     1149
   63.815     1156
   63.830     1153
   63.845     1146
   63.860     1149
   63.875     1114
   63.890     1113
   63.905     1169
   63.920     1094
   63.935     1074
   63.950     1071
   63.965     1095
   63.980     1136
   63.995     1098
   64.010     1093
   64.025     1119
   64.040     1155
   64.055     1082
   64.070     1065
   64.085     1116
   64.100     1030
   64.115     1096
   64.130     1094
   64.145     1046
   64.160     1074
   64.175     1061
   64.190     1088
   64.205     1084
   64.220     1039
   64.235     1036
   64.250     1079
   64.265     1126
   64.280     1112
   64.295     1040
   64.310     1083
   64.325     1096
   64.340     1120
   64.355     1124
   64.370     1051
   64.385     1110
   64.400     1087
   64.415     1090
   64.430     1104
   64.445     1108
   64.460     1094
   64.475     1046
   64.490     1064
   64.505     1089
   64.520     1044
   64.535     1023
   64.550     1057
   64.565     1083
   64.580     1069
   64.595     1047
   64.610     1034
   64.625     1004
   64.640     1024
   64.655     1018
   64.670     1040
   64.685     1045
   64.700     1072
   64.715     1038
   64.730     1049
   64.745     1063
   64.760     1042
   64.775     1029
   64.790     1033
   64.805     1057
   64.820     1058
   64.835     1087
   64.850     1065
   64.865     1027
   64.880     1095
   64.895     1077
   64.910     1078
   64.925     1039
   64.940     1027
   64.955     1039
   64.970     1062
   64.985     1077
   65.000     1037
   65.015     1003
   65.030     1032
   65.045     1079
   65.060     1044
   65.075     1068
   65.090     1060
   65.105     1082
   65.120     1007
   65.135     1057
   65.150     1065
   65.165     1070
   65.180     1039
   65.195     1054
   65.210     1062
   65.225     1089
   65.240     1056
   65.255     1044
   65.270     1016
   65.285     1037
   65.300     1047
   65.315     1036
   65.330     1084
   65.345     1074
   65.360     1035
   65.375      984
   65.390     1035
   65.405     1034
   65.420     1053
   65.435     1046
   65.450      977
   65.465      998
   65.480     1066
   65.495     1050
   65.510     1041
   65.525     1084
   65.540     1086
   65.555     1020
   65.570     1027
   65.585     1006
   65.600     1030
   65.615     1047
   65.630     1026
   65.645     1048
   65.660     1035
   65.675     1085
   65.690     1047
   65.705     1028
   65.720     1081
   65.735     1076
   65.750     1074
   65.765     1085
   65.780     1025
   65.795     1071
   65.810     1069
   65.825     1048
   65.840     1067
   65.855     1063
   65.870     1052
   65.885     1025
   65.900     1032
   65.915     1099
   65.930     1066
   65.945     1051
   65.960     1077
   65.975     1103
   65.990     1080
   66.005     1088
   66.020     1060
   66.035     1057
   66.050     1030
   66.065     1093
   66.080     1077
   66.095     1060
   66.110     1055
   66.125     1081
   66.140     1049
   66.155     1018
   66.170     1058
   66.185     1090
   66.200     1058
   66.215     1053
   66.230     1085
   66.245     1082
   66.260     1095
   66.275     1088
   66.290     1058
   66.305     1060
   66.320     1079
   66.335     1035
   66.350     1035
   66.365     1063
   66.380     1036
   66.395     1073
   66.410     1142
   66.425     1080
   66.440     1041
   66.455     1075
   66.470     1040
   66.485     1027
   66.500     1024
   66.515     1084
   66.530     1027
   66.545     1042
   66.560     1048
   66.575     1042
   66.590     1075
   66.605     1051
   66.620     1028
   66.635     1111
   66.650     1057
   66.665     1058
   66.680     1087
   66.695     1050
   66.710     1059
   66.725     1086
   66.740     1078
   66.755     1049
   66.770     1070
   66.785     1087
   66.800     1053
   66.815     1063
   66.830     1014
   66.845     1089
   66.860     1108
   66.875     1046
   66.890     1045
   66.905     1062
   66.920     1064
   66.935     1088
   66.950     1092
   66.965     1016
   66.980     1021
   66.995     1074
   67.010     1041
   67.025     1040
   67.040     1055
   67.055     1063
   67.070     1074
   67.085     1011
   67.100     1069
   67.115     1039
   67.130     1020
   67.145     1014
   67.160     1043
   67.175     1023
   67.190     1059
   67.205     1060
   67.220     1029
   67.235     1045
   67.250     1017
   67.265     1025
   67.280      993
   67.295     1061
   67.310     1022
   67.325      998
   67.340     1014
   67.355     1033
   67.370     1039
   67.385     1011
   67.400     1009
   67.415     1084
   67.430     1101
   67.445     1074
   67.460     1042
   67.475     1018
   67.490     1058
   67.505     1044
   67.520     1010
   67.535     1033
   67.550     1077
   67.565     1099
   67.580     1060
   67.595     1061
   67.610     1027
   67.625     1034
   67.640     1044
   67.655     1051
   67.670     1085
   67.685     1053
   67.700     1061
   67.715     1109
   67.730     1055
   67.745     1075
   67.760     1067
   67.775     1006
   67.790     1054
   67.805     1065
   67.820     1122
   67.835     1112
   67.850     1123
   67.865     1114
   67.880     1097
   67.895     1079
   67.910     1057
   67.925     1079
   67.940     1075
   67.955     1085
   67.970     1078
   67.985     1090
   68.000     1093
   68.015     1077
   68.030     1055
   68.045     1061
   68.060     1090
   68.075     1079
   68.090     1088
   68.105     1092
   68.120     1022
   68.135     1049
   68.150     1029
   68.165     1036
   68.180     1041
   68.195     1025
   68.210     1064
   68.225     1029
   68.240     1040
   68.255     1082
   68.270     1040
   68.285     1024
   68.300     1074
   68.315     1053
   68.330     1025
   68.345     1072
   68.360     1022
   68.375     1067
   68.390     1060
   68.405     1071
   68.420     1076
   68.435     1041
   68.450     1063
   68.465     1057
   68.480     1099
   68.495     1102
   68.510     1097
   68.525     1063
   68.540     1032
   68.555     1059
   68.570     1049
   68.585     1067
   68.600     1066
   68.615     1071
   68.630     1080
   68.645     1058
   68.660     1082
   68.675     1066
   68.690     1089
   68.705     1111
   68.720     1136
   68.735     1106
   68.750     1071
   68.765     1053
   68.780     1055
   68.795     1083
   68.810     1105
   68.825     1066
   68.840     1090
   68.855     1068
   68.870     1113
   68.885     1123
   68.900     1135
   68.915     1166
   68.930     1068
   68.945     1145
   68.960     1109
   68.975     1118
   68.990     1098
   69.005     1071
   69.020     1149
   69.035     1166
   69.050     1108
   69.065     1075
   69.080     1134
   69.095     1151
   69.110     1117
   69.125     1143
   69.140     1100
   69.155     1117
   69.170     1131
   69.185     1184
   69.200     1158
   69.215     1196
   69.230     1174
   69.245     1180
   69.260     1220
   69.275     1254
   69.290     1248
   69.305     1190
   69.320     1190
   69.335     1198
   69.350     1229
   69.365     1242
   69.380     1304
   69.395     1228
   69.410     1328
   69.425     1317
   69.440     1387
   69.455     1381
   69.470     1392
   69.485     1433
   69.500     1434
   69.515     1484
   69.530     1500
   69.545     1494
   69.560     1514
   69.575     1577
   69.590     1613
   69.605     1595
   69.620     1633
   69.635     1693
   69.650     1679
   69.665     1710
   69.680     1777
   69.695     1777
   69.710     1735
   69.725     1720
   69.740     1711
   69.755     1689
   69.770     1662
   69.785     1687
   69.800     1658
   69.815     1642
   69.830     1577
   69.845     1630
   69.860     1522
   69.875     1431
   69.890     1504
   69.905     1385
   69.920     1432
   69.935     1402
   69.950     1374
   69.965     1346
   69.980     1317
   69.995     1336
   70.010     1290
   70.025     1230
   70.040     1230
   70.055     1275
   70.070     1219
   70.085     1157
   70.100     1175
   70.115     1169
   70.130     1193
   70.145     1138
   70.160     1075
   70.175     1095
   70.190     1082
   70.205     1106
   70.220     1099
   70.235     1077
   70.250     1111
   70.265     1079
   70.280     1090
   70.295     1071
   70.310     1069
   70.325     1120
   70.340     1085
   70.355     1078
   70.370     1071
   70.385     1037
   70.400     1058
   70.415     1066
   70.430     1045
   70.445     1044
   70.460     1069
   70.475     1056
   70.490     1031
   70.505     1025
   70.520     1028
   70.535     1058
   70.550     1026
   70.565     1089
   70.580     1039
   70.595     1015
   70.610     1013
   70.625     1015
   70.640     1009
   70.655     1065
   70.670     1047
   70.685      973
   70.700     1010
   70.715     1020
   70.730      992
   70.745      995
   70.760     1037
   70.775     1039
   70.790     1021
   70.805     1036
   70.820      994
   70.835     1010
   70.850     1030
   70.865     1029
   70.880     1039
   70.895     1066
   70.910      999
   70.925     1011
   70.940     1014
   70.955      986
   70.970     1030
   70.985      997
   71.000     1024
   71.015     1027
   71.030      993
   71.045     1057
   71.060     1024
   71.075     1008
   71.090     1003
   71.105      993
   71.120     1008
   71.135     1025
   71.150     1020
   71.165      986
   71.180     1015
   71.195     1015
   71.210     1038
   71.225      987
   71.240     1045
   71.255     1037
   71.270      982
   71.285      985
   71.300     1013
   71.315      986
   71.330     1020
   71.345     1038
   71.360     1006
   71.375     1004
   71.390      995
   71.405     1008
   71.420     1063
   71.435     1027
   71.450     1058
   71.465     1047
   71.480     1066
   71.495     1059
   71.510     1053
   71.525      981
   71.540     1038
   71.555     1025
   71.570     1029
   71.585     1055
   71.600     1075
   71.615     1038
   71.630     1072
   71.645     1038
   71.660     1041
   71.675     1043
   71.690     1050
   71.705     1004
   71.720     1054
   71.735     1039
   71.750     1049
   71.765     1055
   71.780     1067
   71.795     1038
   71.810     1015
   71.825     1038
   71.840     1005
   71.855     1023
   71.870     1075
   71.885     1040
   71.900     1034
   71.915     1033
   71.930     1072
   71.945     1088
   71.960     1078
   71.975     1041
   71.990     1044
   72.005     1074
   72.020     1049
   72.035     1044
   72.050     1059
   72.065     1027
   72.080      986
   72.095      984
   72.110      976
   72.125     1040
   72.140     1007
   72.155     1005
   72.170     1000
   72.185     1008
   72.200     1016
   72.215     1000
   72.230      978
   72.245     1005
   72.260     1015
   72.275     1015
   72.290      984
   72.305     1033
   72.320     1034
   72.335      955
   72.350     1003
   72.365     1023
   72.380     1017
   72.395      986
   72.410      964
   72.425      974
   72.440      983
   72.455      996
   72.470      997
   72.485     1000
   72.500      986
   72.515      999
   72.530      951
   72.545      981
   72.560      982
   72.575      997
   72.590     1033
   72.605      998
   72.620      962
   72.635      951
   72.650      947
   72.665     1022
   72.680     1015
   72.695     1017
   72.710      987
   72.725     1025
   72.740     1038
   72.755      992
   72.770      977
   72.785     1022
   72.800     1033
   72.815     1020
   72.830     1001
   72.845     1025
   72.860     1035
   72.875      979
   72.890      979
   72.905     1014
   72.920     1004
   72.935      985
   72.950      994
   72.965     1038
   72.980     1000
   72.995     1044
   73.010     1002
   73.025      990
   73.040     1012
   73.055     1006
   73.070      989
   73.085     1018
   73.100     1020
   73.115     1024
   73.130      979
   73.145      992
   73.160     1043
   73.175      989
   73.190     1016
   73.205      999
   73.220     1028
   73.235     1036
   73.250     1025
   73.265      959
   73.280      946
   73.295      989
   73.310      991
   73.325      978
   73.340     1001
   73.355      954
   73.370      980
   73.385     1010
   73.400     1018
   73.415     1008
   73.430      979
   73.445      965
   73.460      983
   73.475      976
   73.490      975
   73.505     1002
   73.520     1033
   73.535      995
   73.550     1045
   73.565     1018
   73.580     1021
   73.595     1006
   73.610      997
   73.625     1004
   73.640      978
   73.655      993
   73.670      979
   73.685     1037
   73.700      960
   73.715      964
   73.730     1005
   73.745     1007
   73.760     1041
   73.775     1049
   73.790     1089
   73.805      999
   73.820     1037
   73.835     1042
   73.850     1034
   73.865     1014
   73.880     1037
   73.895     1067
   73.910     1074
   73.925     1028
   73.940     1032
   73.955     1080
   73.970     1065
   73.985     1071
   74.000     1055
   74.015     1058
   74.030     1078
   74.045     1093
   74.060     1100
   74.075     1089
   74.090     1096
   74.105     1100
   74.120     1142
   74.135     1067
   74.150     1079
   74.165     1038
   74.180     1082
   74.195     1078
   74.210     1073
   74.225     1034
   74.240     1051
   74.255     1118
   74.270     1099
   74.285     1075
   74.300     1034
   74.315     1064
   74.330     1077
   74.345     1084
   74.360     1100
   74.375     1084
   74.390     1132
   74.405     1064
   74.420     1070
   74.435     1034
   74.450     1068
   74.465     1060
   74.480     1025
   74.495      983
   74.510     1056
   74.525     1067
   74.540     1036
   74.555     1024
   74.570     1020
   74.585     1005
   74.600     1039
   74.615      995
   74.630     1027
   74.645     1065
   74.660     1027
   74.675     1066
   74.690     1063
   74.705     1029
   74.720     1054
   74.735     1007
   74.750     1056
   74.765     1115
   74.780     1086
   74.795     1058
   74.810      978
   74.825      998
   74.840     1052
   74.855     1065
   74.870     1004
   74.885     1034
   74.900     1035
   74.915     1047
   74.930     1033
   74.945     1067
   74.960     1053
   74.975     1046
   74.990     1028
   75.005     1073
   75.020     1085
   75.035     1042
   75.050     1104
   75.065     1063
   75.080     1093
   75.095     1083
   75.110     1118
   75.125     1109
   75.140     1043
   75.155     1078
   75.170     1096
   75.185     1118
   75.200     1130
   75.215     1147
   75.230     1153
   75.245     1144
   75.260     1108
   75.275     1147
   75.290     1170
   75.305     1175
   75.320     1253
   75.335     1206
   75.350     1183
   75.365     1191
   75.380     1242
   75.395     1332
   75.410     1247
   75.425     1299
   75.440     1277
   75.455     1265
   75.470     1285
   75.485     1298
   75.500     1351
   75.515     1308
   75.530     1308
   75.545     1319
   75.560     1350
   75.575     1338
   75.590     1335
   75.605     1416
   75.620     1442
   75.635     1448
   75.650     1430
   75.665     1467
   75.680     1465
   75.695     1517
   75.710     1507
   75.725     1514
   75.740     1571
   75.755     1625
   75.770     1630
   75.785     1584
   75.800     1647
   75.815     1631
   75.830     1641
   75.845     1709
   75.860     1699
   75.875     1732
   75.890     1727
   75.905     1651
   75.920     1634
   75.935     1619
   75.950     1635
   75.965     1617
   75.980     1603
   75.995     1535
   76.010     1595
   76.025     1523
   76.040     1566
   76.055     1522
   76.070     1509
   76.085     1517
   76.100     1439
   76.115     1453
   76.130     1422
   76.145     1423
   76.160     1391
   76.175     1364
   76.190     1363
   76.205     1367
   76.220     1351
   76.235     1359
   76.250     1400
   76.265     1282
   76.280     1274
   76.295     1340
   76.310     1303
   76.325     1288
   76.340     1296
   76.355     1278
   76.370     1257
   76.385     1199
   76.400     1222
   76.415     1213
   76.430     1167
   76.445     1166
   76.460     1167
   76.475     1168
   76.490     1162
   76.505     1141
   76.520     1106
   76.535     1145
   76.550     1132
   76.565     1136
   76.580     1115
   76.595     1135
   76.610     1153
   76.625     1127
   76.640     1077
   76.655     1147
   76.670     1129
   76.685     1111
   76.700     1117
   76.715     1101
   76.730     1128
   76.745     1135
   76.760     1112
   76.775     1098
   76.790     1089
   76.805     1097
   76.820     1123
   76.835     1116
   76.850     1114
   76.865     1105
   76.880     1135
   76.895     1143
   76.910     1136
   76.925     1134
   76.940     1158
   76.955     1157
   76.970     1134
   76.985     1190
   77.000     1164
   77.015     1144
   77.030     1113
   77.045     1195
   77.060     1184
   77.075     1170
   77.090     1185
   77.105     1227
   77.120     1220
   77.135     1234
   77.150     1300
   77.165     1325
   77.180     1220
   77.195     1301
   77.210     1315
   77.225     1316
   77.240     1280
   77.255     1278
   77.270     1336
   77.285     1368
   77.300     1348
   77.315     1365
   77.330     1375
   77.345     1376
   77.360     1354
   77.375     1335
   77.390     1352
   77.405     1378
   77.420     1367
   77.435     1352
   77.450     1333
   77.465     1350
   77.480     1354
   77.495     1284
   77.510     1318
   77.525     1304
   77.540     1290
   77.555     1280
   77.570     1189
   77.585     1280
   77.600     1216
   77.615     1223
   77.630     1208
   77.645     1201
   77.660     1157
   77.675     1144
   77.690     1197
   77.705     1094
   77.720     1167
   77.735     1180
   77.750     1157
   77.765     1176
   77.780     1116
   77.795     1135
   77.810     1151
   77.825     1136
   77.840     1154
   77.855     1157
   77.870     1127
   77.885     1138
   77.900     1106
   77.915     1079
   77.930     1087
   77.945     1129
   77.960     1107
   77.975     1065
   77.990     1133
   78.005     1063
   78.020     1121
   78.035     1106
   78.050     1049
   78.065     1079
   78.080     1090
   78.095     1060
   78.110     1069
   78.125     1018
   78.140     1078
   78.155     1095
   78.170     1039
   78.185     1011
   78.200     1028
   78.215     1038
   78.230     1034
   78.245     1033
   78.260     1015
   78.275     1022
   78.290     1068
   78.305     1015
   78.320     1018
   78.335     1007
   78.350     1014
   78.365     1025
   78.380     1047
   78.395     1059
   78.410     1042
   78.425     1027
   78.440     1021
   78.455     1071
   78.470     1081
   78.485     1032
   78.500     1043
   78.515     1004
   78.530     1026
   78.545     1032
   78.560     1025
   78.575     1010
   78.590     1007
   78.605      995
   78.620      980
   78.635      978
   78.650      996
   78.665      973
   78.680      957
   78.695      982
   78.710     1031
   78.725     1048
   78.740     1007
   78.755     1004
   78.770      990
   78.785     1011
   78.800     1020
   78.815      949
   78.830      986
   78.845     1006
   78.860      995
   78.875     1032
   78.890     1002
   78.905     1006
   78.920     1003
   78.935     1001
   78.950     1021
   78.965      994
   78.980      999
   78.995     1013
   79.010     1017
   79.025      980
   79.040     1017
   79.055     1063
   79.070     1022
   79.085      988
   79.100     1040
   79.115     1010
   79.130     1022
   79.145      972
   79.160      995
   79.175     1011
   79.190     1067
   79.205     1011
   79.220     1040
   79.235      997
   79.250     1014
   79.265      991
   79.280     1020
   79.295     1027
   79.310      977
   79.325      997
   79.340     1013
   79.355      988
   79.370      980
   79.385     1016
   79.400      990
   79.415     1030
   79.430      971
   79.445      975
   79.460      982
   79.475      965
   79.490      946
   79.505      986
   79.520      979
   79.535      955
   79.550      916
   79.565      957
   79.580      962
   79.595      929
   79.610      980
   79.625      961
   79.640      969
   79.655      946
   79.670      951
   79.685      944
   79.700      967
   79.715      949
   79.730      964
   79.745      919
   79.760      924
   79.775      910
   79.790      933
   79.805      942
   79.820      914
   79.835      954
   79.850      917
   79.865      935
   79.880      953
   79.895      932
   79.910      923
   79.925      955
   79.940      983
   79.955      933
   79.970      919
   79.985      955
   80.000      929
   80.015      972
   80.030     1002
   80.045      966
   80.060      991
   80.075      985
   80.090     1000
   80.105      912
   80.120      935
   80.135      941
   80.150      993
   80.165      992
   80.180      976
   80.195     1011
   80.210      980
   80.225      923
   80.240      914
   80.255      988
   80.270      971
   80.285      935
   80.300      994
   80.315      978
   80.330      976
   80.345      999
   80.360      987
   80.375      995
   80.390     1019
   80.405      950
   80.420      958
   80.435      988
   80.450      995
   80.465      961
   80.480     1001
   80.495      965
   80.510      959
   80.525     1017
   80.540     1009
   80.555     1016
   80.570     1004
   80.585     1002
   80.600     1015
   80.615     1036
   80.630     1020
   80.645     1041
   80.660     1032
   80.675     1029
